879
864
891.000000000014
989.00000000003
1161
1402
1646
1842.91396334398
1981
2033
1924
1729.99999999991
1522
1338
1216
1108.99999999996
1037
979
938
902.999999999988
887
884.875445461471
892
902.000000000002
901
902
917
927.000000000003
932
933
932
937.000000000006
954
963
965
971.000000000004
981.38692555141
987
984
989.000000000003
994
991
1000
1011
1007
1009
1017
1020
1016
1025
1025
1040.13954039754
1056
1058
1071
1077
1093
1119
1142
1155
1175
1198
1233
1267
1294
1319
1341.94272669223
1367
1395
1414
1430
1442
1461
1460
1455
1438
1412
1396
1370
1333
1303
1268.81243813032
1236
1213
1191
1160
1138
1122
1099
1088
1075
1060
1055
1057
1063
1051
1043.84944813443
1039
1031
1033
1030
1029
1025
1026
1031
1028
1025
1022
1028
1030
1025.23748061936
1019
1017
1019
1015
1010
1001
1010
1013
1012
988
983
981
979
978
968.118379677133
957
954
957.000000000004
963
950
945
945.000000000001
949
953
949
948.999999999998
942
944
948
942.388343649714
937
940
939
940
934
920
915
917
916
915
910
906.999999999999
906
910
913.258956180934
910.999999999997
908
922
919
923
914
903
915
913.999999999998
910
902
905
904.000000000001
909
908.309832497864
903
901.000000000002
908
908
903
901.999999999996
890
897
915
916.999999999996
906
904
902
904
904.960113437314
901
896
906
910
913
921
922
930
940
945
960
971
987
1008
1013.2417289056
1008
1002
995
997
1002
999
988
977
968
956
939
930
930
929.525928011391
924
913
904
902
911
915
912
904
885
869
858
843
844
865
959.673699148158
1133
1368
1619
1819
1965
2023
1913
1704
1510
1339
1212
1115
1041
982
940.201521228872
911
890
881
879
882
890
904
907
908.000000000006
931
936
940
941
941
947.719402007932
958
964
958
956
966
965.999999999998
960
956
954
963.000000000003
967
974
970
971.000000000004
986.777902798837
1002
1003
1005
1022
1036
1044
1076.00000000001
1085
1086
1101
1125.00000000001
1142
1161
1183
1220.64251041015
1256
1272
1286
1303.00000000001
1326
1344
1362
1374
1375
1383
1378
1373.99999999999
1355
1337.6956943282
1317
1286.99999999999
1263
1229
1188
1158.99999999999
1131
1104
1085
1069
1046
1027
1011
1000
994.876712395168
991
986
986
980
967
969
966
970
969
971
966
972
982
979
975.357040090184
975
977
980
983
976
976
981
985
991
994
983
986
999
991
979.544779494072
978
988
991
990
989
979
976
976
971
974
974
973
981
973
960.175988973165
952
955
968
962
951
944
948
947
951
948
953
958
959
951
941.99416008741
943
957
966
976.000000000002
974
969
966
968.000000000002
971
966
960
964.000000000004
972
967.509855401807
959
957
958
969
975
976.999999999997
968
982
979
985.000000000003
987
988
999
1019.00000000001
1027.57964373107
1038
1061
1069
1070
1072
1066
1057
1053
1064
1062
1054
1047
1025
1013
1009.65556625971
1003
988
980
974.999999999999
976
981
982
977.999999999996
968
971
958
941.999999999989
913
902
888.721609471368
888
931
1050
1248
1499
1718
1899
2033
2069
1940
1732
1530
1360
1232
1136.1770130853
1063
1006
963
931
920
917
930
936
950
957
965
975
976
983
998.774167445949
1008
1004
1012
1018
1032
1028
1024
1026
1034
1047
1054
1052
1058
1062.40107561883
1067
1075
1078
1081
1093
1105
1116
1120
1129
1144
1156
1177
1190
1208
1231.29862571963
1259
1287
1302
1318
1340
1365
1387.00000000001
1401
1420
1438
1448.00000000001
1463
1469
1464
1454.58052485922
1439
1416
1391
1357.99999999998
1326
1296
1266
1233.99999999998
1196
1179
1157
1134.99999999999
1120
1106
1083.74120422781
1063.99999999999
1057
1049
1031
1028
1033
1031
1026
1024
1021
1018
1021
1022
1015
1006.26143621878
1005
1013
1011
1006
1006
1009
1011
1012
1015
1011
1005
1005
1011
1009
1007.50872280419
1011
1018
1018
1011
1006
1008
1007
1021
1012
1005
1003
1008
1012
1009.7833568126
1005
999
989
997
990
985
981
980
981
972
967
964
968
975
972.788256004596
970
976
982
984
979
972
977
977
975
975
971
971
981
981
980.858265588704
982
985
995
992
999
1006
1005
1014
1041
1039
1048
1062
1077
1093
1098.99389125542
1098
1098
1103
1102
1101
1091
1086
1088
1080
1080
1056
1033
1023
1021
1011.21382579188
1000
998.000000000002
1002
999
1003
995.999999999998
995
993
991
960.999999999988
941
920
921
938.00000000002
1028.8608217521
1208
1456
1697.0000000001
1887
2024
2105
2028.99999999993
1834
1607
1430
1283.99999999994
1172
1094
1032.28303135693
984.999999999983
952
925
913
915.000000000001
916
914
906
918.000000000006
925
930
938
940
942
949.237452347102
958
963.000000000001
964
970
978
987.000000000001
986
992
990
993.000000000006
1008
1001
1000
1004
1011.86812194151
1020
1024
1026
1036
1048
1065
1070
1078
1096
1122
1144
1161
1173
1197
1225.29919460055
1253
1279
1303
1323
1355
1376
1394
1408
1415
1424
1433
1428
1407
1387
1363.75526051691
1337
1305
1261
1230
1202
1176
1149
1124
1094
1081
1065
1059
1044
1029
1024.10313836064
1023
1020
1022
1023
1023
1031
1032
1030
1029
1028
1037
1053
1054
1045
1047.0801439341
1058
1067
1065
1067
1070
1082
1090
1087
1087
1095
1097
1097
1101
1094.11006942895
1095
1112
1102
1100
1085
1082
1083
1087
1079
1073
1076
1083
1089
1095
1088.91943302843
1081
1083
1088
1091
1080
1080
1084
1082
1081
1072
1074
1080
1080
1077
1071.59109039865
1071
1079
1084
1088
1079
1082
1083
1096
1094
1083
1085
1093
1098
1099
1099.28215738957
1097
1094
1104
1110
1099
1094
1099
1112
1114
1106
1107
1105
1112
1117
1114.92837824699
1111
1110
1112
1119
1109
1107
1107
1104
1105
1104
1097
1105
1106
1101
1098.9238813725
1098
1098
1107
1109
1105
1098
1096
1097
1102
1103
1099
1102
1099
1097.99943072418
1097
1091
1086
1096
1103
1102
1104
1109
1119
1132
1139
1142
1159
1180
1199.03282885111
1211
1211
1203
1205
1208
1203
1193
1193
1185
1173
1156.99999999999
1143
1133
1135
1128.30752077794
1118
1113
1108
1113
1120
1122
1114
1109
1104
1094
1073
1051.99999999999
1044
1027
1048.74983326924
1139.00000000006
1313
1551
1771
1943.00000000006
2068
2147
2071
1895.99999999991
1678
1484
1324
1204.99999999996
1123
1053.81904968328
1004
985.999999999999
994
1011
1039
1048
1060
1071
1079
1099.00000000001
1111
1110
1117
1130.00000000001
1142.2220465479
1151
1156
1164.00000000001
1179
1182
1191
1196
1201
1214
1223
1226
1230
1233
1241.48220123544
1249
1252
1262
1260
1268.00000000001
1279
1286
1289
1292
1307
1324
1345
1359
1371
1391.64644132785
1416
1440
1470
1490
1514
1536
1551
1578
1579
1593
1605
1622
1623
1615
1608.1148474793
1596
1572
1542
1509
1476
1445
1420
1392
1358
1329
1309
1289
1280
1273
1261.94863701894
1251
1245
1243
1239
1228
1229
1235
1239
1242
1234
1238
1233
1237
1234
1232.87146871865
1236
1241
1243
1239
1243
1245
1253
1256
1245
1236
1238
1238
1244
1235
1229.59055670726
1230
1233
1238
1229
1222
1223
1226
1229
1224
1211
1217
1214
1223
1226.26517462324
1222
1219
1226
1229
1236
1226
1229
1230
1240
1241
1236
1232
1237
1234
1235.18120325403
1240
1244
1248
1247
1247
1247
1248
1250
1261
1254
1256
1254
1265
1269
1271.68660257259
1269
1262
1273
1273
1279
1270
1265
1266
1268
1265
1259
1259
1262
1268
1266.9996943455
1261
1256
1255
1256
1263
1250
1254
1254
1263
1263
1254
1253
1256
1262
1258.38514750542
1255
1260
1257
1258
1263
1257
1255
1256
1261
1260
1254
1261
1256
1258
1261.36926138678
1261
1258
1263
1272
1269
1264
1260
1267
1264
1264
1261
1263
1267
1275.63342817614
1285
1289
1290
1306
1320
1342
1353
1360
1355
1355
1361
1356
1352
1349
1346.04365638245
1335
1317
1316
1299
1293
1293
1289
1285
1282
1286
1285
1286
1283
1283
1283.82561702111
1275
1252
1232.99999999999
1222
1223
1244
1348.00000000007
1534
1727
1915
2042.00000000005
2143
2203
2136
1973.09187338525
1768
1566
1391
1256.99999999995
1170
1128
1114
1117.00000000001
1142
1178
1204
1235.00000000001
1254
1267
1291.6277646268
1315.00000000001
1324
1332
1339
1346
1352
1367
1370
1375
1380
1387
1390
1391
1391
1395.4448915293
1403
1408
1404
1406
1411
1419
1423
1419
1420
1429.00000000001
1443
1455
1452
1460.31862765271
1474
1485
1510
1529
1537
1548
1582
1609
1637
1657
1675
1704
1733
1747
1760.15164389224
1777
1795
1804
1800
1783
1765
1753
1743
1710
1672
1636
1607
1577
1546
1518.66842130718
1496
1476
1454
1436
1412
1394
1390
1383
1381
1376
1367
1361
1359
1355
1349.64849635645
1345
1344
1349
1348
1342
1338
1340
1344
1348
1353
1350
1342
1356
1352
1353.03869128147
1355
1353
1368
1362
1353.99999999999
1340
1345
1355
1351
1352
1355
1352
1348
1348
1341.41009549679
1336
1339
1340
1346
1342
1336
1335
1338
1345
1338
1342
1339
1340
1344
1341.87608041267
1336
1332
1334
1337
1333
1333
1326
1333
1338
1333
1335
1337
1347
1354.22390429343
1352
1345
1353
1348
1346
1340
1335
1338
1341
1346
1349
1345
1345
1336
1339.26109431056
1345
1341
1344
1354
1363
1357
1355
1360
1358
1360
1371
1352
1348
1357
1359.70711618913
1364
1371
1355
1360
1356
1360
1364
1354
1359
1371
1372
1373
1374
1374
1383.19924080139
1393
1399
1421
1436
1451
1479
1464
1463
1460
1454
1451
1436
1423
1406
1400.35899927881
1396
1383
1376
1364
1361
1355
1352
1352
1352
1355
1364
1347
1326
1305.99999999999
1293.77595052829
1278
1254
1259.00000000001
1323
1481
1681
1869.00000000007
2007
2118
2194
2181.99999999996
2044
1862
1686.35849745263
1518.99999999993
1363
1246
1160
1119.99999999999
1118
1132
1164
1189.00000000001
1214
1248
1271
1286.00000000001
1300
1311.85754810035
1324
1336
1339
1345
1345
1355.00000000001
1368
1372
1373
1380
1389
1389
1392
1387
1388.64253994182
1397
1406
1411
1412
1415
1423
1431
1441
1449
1457
1475.00000000001
1494
1510
1518
1524.76157803734
1540
1567
1591
1611
1619
1652
1677
1701.00000000001
1716
1739
1754
1780.00000000001
1797
1811
1816.18485611838
1815
1812
1803
1781
1756
1726
1706
1682
1642
1612
1578
1559
1542
1521
1497.22648995738
1476
1463
1457
1446
1438
1427
1425
1417
1408
1393
1393
1401
1400
1402.7610507453
1402
1395
1409
1415
1403
1410
1408
1415
1426
1418
1415
1410
1408
1413
1415.84251855985
1418
1421
1419
1422
1420
1419
1418
1425
1424
1429
1432
1429
1422
1430.00000000001
1437.66877864233
1432
1414
1412
1410
1403
1400
1393
1396
1408
1409
1400
1426
1425.08196078353
1409
1407.78162518506
1412
1409
1405
1397
1406
1388
1373
1351.99999999999
1338
1329
1363
1458.00000000006
1614
1802
1951.75596371866
2063.00000000004
2153
2210
2174
2037.99999999993
1861
1681
1525
1371.99999999994
1268
1223
1200
1190
1198
1224.07932439513
1258
1287.00000000001
1303
1318
1342
1371.00000000001
1382
1387
1385
1388
1395
1403
1400
1393.48079101581
1402
1429
1431
1424
1427
1421
1436
1439
1431
1438
1436
1443
1459
1462
1461.76798852237
1467
1482
1501
1509
1517
1534
1544
1559
1578
1588
1607
1641
1669
1691
1703.01539414566
1718
1746
1771
1791
1798
1808
1820
1826
1830
1805
1791
1775
1748
1715
1680.14261771933
1649
1623
1594
1572.99999999999
1542
1520
1497
1479.99999999999
1459
1443
1420
1419
1410
1407
1404.21217649352
1400
1397
1396
1388
1381
1382
1387
1395
1399
1399
1397
1403
1415
1418
1421.66009055819
1428
1434
1438
1449
1448
1443
1453
1457
1466
1459.99999999999
1451
1453
1457
1459.3503148273
1460
1460
1464
1474
1481
1485
1492
1491
1499
1506
1508
1508
1505
1511
1512.1340609465
1508
1502
1495
1500
1507
1501
1493
1497
1503
1503
1504
1495
1494
1491
1497.01589035635
1499
1489
1494
1493
1501
1493
1487
1484
1482
1492
1490
1483
1480
1494
1496.28726786498
1499
1514
1517
1534
1542
1539
1530
1524
1519
1520
1511
1498
1493
1480
1465.89517196539
1453
1439
1420
1406
1406
1398
1391
1377
1377
1375
1381
1373
1373
1357
1334.28454352594
1312
1294
1285
1296
1385
1558
1745
1904
2028
2117.00000000004
2180
2148
1998
1806.60221791374
1603
1409
1269
1161.99999999996
1096
1086
1087
1104.00000000001
1132
1156
1177
1199.00000000001
1209
1223
1234.44742251451
1247.00000000001
1264
1269
1261
1276.00000000001
1285
1291
1287
1288
1287
1296
1306
1307
1303
1302.19149350259
1309
1322
1324
1315
1320
1328
1336
1337
1346
1351.00000000001
1367
1368
1375
1377
1390.5650652395
1414
1437
1454.00000000001
1479
1499
1524
1544.00000000001
1570
1595
1614
1632.00000000001
1658
1673
1671
1680.34198490713
1691
1688
1681
1665.99999999999
1637
1610
1580
1545.99999999999
1523
1490
1454
1432.99999999999
1411
1374
1347.10621251412
1328.99999999999
1314
1308
1294
1284
1282
1275
1271
1262
1260
1259
1265
1252
1259
1256.45756556964
1251
1257
1260
1258
1259
1255
1259
1264
1264
1267
1266
1271
1276
1282.03290141507
1280
1269
1278
1285
1283
1283
1282
1280
1281
1291
1273
1283
1285
1283
1278.36228697353
1266
1256.00000000001
1280
1271
1271
1262
1261
1257
1260
1258
1254
1246
1246
1240
1235.58001219012
1231
1225
1230
1238
1239
1229
1230
1228
1232
1227
1224
1216
1225
1226
1229.87714251408
1231
1223
1223
1229
1229
1228
1217
1218
1223
1224
1215
1214
1211
1217
1218.91155819935
1216
1214
1220
1229
1224
1217
1215
1215
1219
1220
1219
1214
1210
1218
1220.32926448888
1218
1217
1216
1217
1220
1215
1209
1205
1214
1221
1216
1214
1220
1220.08363304658
1218
1216
1202
1202
1207
1213
1212
1211
1210
1212
1221
1220
1215
1223
1232.60639205271
1240
1247
1258
1270
1290.00000000001
1306
1309
1310
1307
1311
1313
1310
1307
1301
1289.71301616723
1283
1282
1262
1254
1248
1244
1247
1238
1232
1235
1242
1251
1252
1253
1237.59807095535
1214
1196
1184
1173
1178
1261
1417.99999999991
1629.00000000009
1813
1952.00000000005
2056
2135.99999999996
2115
1978
1773.93263796006
1559
1377.00000000015
1229
1119
1060.00000000003
1044
1048
1067.99999999998
1094
1118.99999999998
1145
1172
1185.99999999999
1199
1212.81428309367
1226.99999999999
1240
1246
1249
1255
1266.99999999999
1280
1294
1290
1296
1306.99999999999
1320
1317
1316.93809470721
1323
1330
1334.99999999999
1346
1339
1344
1353
1365
1364
1367
1370
1376
1392.99999999999
1397
1406.50787009754
1418.99999999999
1431
1458
1477.99999999998
1497
1514.99999999998
1537
1561
1591.99999999997
1618
1636
1665.99999999998
1682
1696.99999999999
1712.84722731721
1726
1734.99999999999
1741
1739
1739.00000000001
1714
1695.00000000001
1677
1646
1611.00000000003
1582
1548
1534.00000000002
1504
1468.956254122
1441
1422
1402.00000000001
1395
1378
1367.00000000001
1362
1358
1359
1345
1342
1349
1347
1346
1341.0097576468
1335
1334
1338
1337
1334
1339
1334
1341
1342
1337
1342
1341
1345
1350
1347.23872515746
1340
1336
1340
1337
1339
1333
1338
1335
1337
1329.00000000001
1325
1331
1331
1329.55894560294
1327
1325
1336
1348.99999999999
1349
1352
1349.00000000001
1341
1332
1340
1338
1333
1333
1336
1335.4931318473
1332
1328
1325
1325
1331
1325
1321
1316
1323
1322
1321
1317
1322
1322
1328.70276226954
1333
1327
1327
1321
1325
1326
1332
1324
1325
1328
1332
1335
1329
1334
1335.5672286285
1339
1348
1341
1338
1345
1347
1338
1339
1340
1344
1341
1337
1336
1337
1337.00802157115
1336
1335
1334
1332
1339
1339
1336
1337.99999999999
1344
1337
1351
1341
1339
1341
1346.12562457554
1350
1346
1336
1341.99999999999
1350
1352
1355
1351
1345
1352
1355
1352
1351
1354.32233738719
1356
1355
1362
1354
1357
1362
1360
1350.00000000001
1349
1348
1357.99999999999
1365
1369
1375.99999999999
1383.40817620765
1394.99999999999
1413
1426
1430.99999999999
1439
1443.99999999999
1452.99999999999
1453
1449.00000000001
1439
1431
1436
1425
1408.00000000001
1394.42158961279
1384
1375.00000000001
1366
1357
1352.00000000001
1346
1347
1348
1340
1336
1334
1342
1336.00000000002
1309
1285.74199014046
1272
1263
1256.99999999999
1305
1422
1608.99999999982
1793
1926.9999999999
2030
2115
2143.00000000002
2056
1879
1677.00000000018
1477.10572216086
1315.00000000012
1209
1121
1090.00000000002
1071
1090
1120.99999999997
1158
1182.99999999998
1197
1211
1231.99999999998
1250
1264
1274.51490067674
1282
1289.99999999999
1303
1300
1301.99999999999
1310
1311
1318.99999999999
1319
1317
1321
1324
1328
1332.16969091197
1331
1325
1332
1339
1336
1332
1338.99999999999
1347
1352
1363.99999999999
1369
1377.99999999999
1392
1408
1419.31618659645
1435
1460
1476.99999999998
1500
1522.99999999998
1540
1552
1581.99999999997
1605
1620
1638.99999999999
1651
1670.99999999998
1690
1693.18420138411
1693.99999999999
1702
1695
1686.00000000001
1673
1649.00000000002
1626
1596
1569.00000000002
1541
1509
1471.00000000003
1445
1425.00000000002
1398.55902477384
1376
1364.00000000001
1345
1336
1325.00000000001
1316
1301.00000000001
1297
1306
1304
1298
1288.00000000001
1289
1293
1291.32643007878
1287
1285
1286
1288
1296
1294
1292
1293
1298
1301
1299
1296
1290
1293
1299.0734218365
1299.00000000001
1291
1293
1300.99999999999
1305
1301
1298
1295
1287.99999999999
1305
1294
1293
1293
1287
1288.67194372299
1295
1293.00000000001
1276
1292
1293
1294
1286.00000000001
1285
1284
1287
1288
1275
1275
1277.79366199362
1280
1281
1273
1262
1267
1276
1279
1272
1279.99999999999
1284
1283
1283
1275
1275
1280.04221070047
1281
1275
1274
1268
1267
1270
1272
1266.00000000001
1260
1256
1265
1271
1263
1267
1271.08564732182
1269.00000000001
1264
1265.00000000001
1253
1257
1266
1263
1257
1254
1258
1264.99999999999
1270
1271
1261.00000000001
1256.75843417814
1261
1268
1266
1261
1259
1263
1272
1270
1269
1273.99999999999
1287
1297.99999999999
1316
1325
1342.82458639559
1357
1353
1348
1347
1345
1346
1335
1325.00000000001
1306
1291
1285.00000000001
1271
1262.00000000001
1251
1245.49456040117
1247
1248
1234.00000000001
1231.00000000001
1223
1228
1224
1213
1185.00000000003
1159
1153.00000000001
1136.00000000001
1145
1206.19168583852
1338
1538
1732.99999999984
1886
1993.99999999991
2077
2095
1988.00000000014
1802
1617
1436.00000000016
1272
1145.00000000009
1065
1012.26058202841
987.000000000008
992
1014
1043.99999999997
1068
1085.99999999998
1113
1126
1140.99999999998
1156
1161
1160.99999999999
1175
1188
1184.10498354839
1180
1189.99999999999
1195
1197
1197
1197
1209.99999999999
1210
1220
1214.00000000001
1203
1205
1220.99999999999
1226
1230.07548521091
1235
1240
1248.99999999999
1254
1267
1279.99999999999
1296
1314.99999999998
1333
1345
1353.99999999998
1382
1399
1433.99999999997
1456.00507806926
1470.99999999998
1493
1514
1536.99999999999
1538
1553
1562.99999999999
1584
1596.99999999999
1601
1602
1600
1597
1582
1564.69481123776
1544
1519.00000000002
1498
1464
1426.00000000003
1389
1359
1336.00000000002
1315
1298.00000000002
1276
1252
1237.00000000001
1225.61184921663
1214
1202.00000000001
1195
1192
1192
1188
1189
1191
1193
1196
1197
1197
1189
1192
1198.91795785129
1203
1200
1193
1202
1210
1211
1210
1208
1214
1213
1218
1212
1202
1211
1217.61702298845
1218
1215
1209
1208
1210
1205
1206
1199
1209.99999999999
1208
1206
1198
1194
1187
1191.9377199202
1194
1183
1186
1180
1183
1173
1165.00000000001
1152
1150
1156.99999999999
1163
1153.00000000001
1144
1141
1143.88278224849
1140
1127
1132
1124
1134
1130
1136
1124.00000000001
1122
1124
1128
1120
1112.00000000001
1109
1111.331235114
1111
1104
1104
1105
1106
1112
1109
1109
1104
1105
1108
1103.00000000001
1101
1109.48233595105
1114
1108
1117.99999999999
1117
1110
1123.99999999999
1131
1142.99999999999
1152
1159
1179.99999999998
1196
1207
1208
1210.53447871292
1213
1211
1208
1204.00000000001
1194
1189
1187
1180
1161.00000000002
1145
1137
1135.00000000001
1122
1118
1108.94615285732
1098
1095.99999999999
1102
1091
1090
1081
1066
1041.00000000002
1020
1001.00000000001
997
1027
1130.99999999987
1318
1537.91167365941
1736.99999999985
1881
1994.99999999991
2058
1971
1791.00000000018
1577
1383
1223.00000000013
1101
1014.00000000007
942
907
890.000000000006
894.532883293198
913
933.999999999982
955
975.999999999987
984
991
1008.99999999998
1025
1026
1029
1032
1039.99999999999
1058
1055
1052.02458840449
1059
1071.99999999999
1076
1090
1089
1087
1091
1096
1094
1095.00000000001
1087
1100
1108
1109.41002147977
1110
1113
1120
1138.99999999998
1151
1151
1167.99999999998
1190
1216
1245.99999999998
1254
1273.99999999998
1298
1331
1359.35520124845
1380
1400
1434.99999999997
1463
1483.99999999998
1500
1510
1528.99999999999
1534
1540
1526.00000000002
1504
1490.00000000002
1458
1429.31670246793
1399.00000000003
1361
1337
1313.00000000002
1281
1241.00000000003
1213
1197
1181.00000000001
1171
1153
1138.00000000001
1128
1123
1121.97176130802
1118
1107.00000000001
1101
1106
1110.99999999999
1118
1103
1117
1122
1125
1122
1123
1121
1125
1127.24964608655
1130
1135
1132
1134
1145
1139
1145
1151.99999999999
1157
1151
1144.00000000001
1137
1135
1142.99999999999
1142.91611481511
1140
1138
1125
1136.99999999999
1135
1131
1122.00000000001
1122
1126
1128
1125
1124
1123
1121.71074657272
1123.99999999999
1131
1131.00000000001
1121
1122
1130.99999999999
1132
1125
1123
1130
1129
1129
1128
1131
1132.01379101817
1132
1133
1131
1128
1133
1135
1136
1138
1130
1133
1142
1142
1136
1134
1129.9881250975
1130
1137
1135
1136
1135
1140
1146
1135.00000000001
1130
1130.99999999999
1145
1141
1135
1133
1129.19134841941
1131.99999999999
1143
1135.00000000001
1126
1126
1129
1130
1125
1124
1121
1125.99999999999
1133
1125
1121
1122.33655469953
1125
1126
1125
1124
1122
1121
1121
1123
1112
1109.99999999999
1120
1118
1117
1115
1108.29892680559
1108
1117
1109.00000000001
1106
1105
1106
1106
1103
1106
1108
1118.99999999999
1128
1131.99999999999
1144
1155.985071554
1169.99999999998
1188
1199
1206
1210
1213
1212
1208
1203.00000000001
1198
1195
1187.00000000001
1180
1158.36037468631
1140
1139
1127.00000000001
1120
1120
1111.00000000001
1112
1122
1119
1127
1128
1135
1137
1115.00000000002
1093.18231222928
1078.00000000001
1066
1054
1073.99999999995
1172
1357
1570.99999999981
1763
1903.99999999989
2021
2065
1986.00000000012
1808
1592
1391.76835407652
1229
1111.00000000009
1020
951
931.000000000006
929
945
972.999999999977
997
1020.99999999999
1030
1049
1063.99999999998
1085
1092.96293884131
1094
1100
1110.99999999999
1127
1128
1131
1137
1147.99999999999
1154
1160
1155
1156
1164
1176.99999999999
1177.0781478341
1173
1177
1184
1192.99999999999
1201
1198
1198
1201
1205.99999999999
1221
1226
1232.99999999998
1259
1279
1287.33379717094
1295
1311.99999999998
1337
1367
1387.99999999998
1411
1428
1454.99999999997
1482
1504.99999999998
1522
1541
1541
1546.52352431721
1559
1567
1559
1553.00000000001
1541
1532
1504.00000000003
1471
1437
1409.00000000002
1377
1340.00000000003
1316
1287
1267.78792238852
1249
1222
1207.00000000001
1194
1189.00000000001
1180
1174
1175
1169
1176
1175
1172
1164
1166
1172.95986721492
1177
1175
1174
1172
1178
1185
1176
1176
1175
1179
1181
1178.00000000001
1171
1174.99999999999
1181.25748934196
1178
1164.00000000001
1162
1161
1169
1166
1159
1155
1148
1153
1146
1141
1141
1136
1136.77567944659
1140
1139
1131.00000000001
1116
1130
1127.00000000001
1124
1128
1127
1126
1127
1126
1128
1111.00000000001
1110.60452094901
1117
1113
1113
1116
1118
1117
1114
1109
1102
1105
1110
1110
1105
1106.42406380597
1111
1114
1116.00000000001
1105
1106
1110
1109
1110
1105
1102
1099
1099
1108
1105.00000000001
1101.57473446647
1103.99999999999
1110
1108
1105.00000000001
1094
1095
1100.99999999999
1102
1090.00000000001
1088
1090
1091
1088
1082
1087.3272081693
1090
1082
1091
1088
1083
1079
1083
1093
1082
1075
1078
1081
1087
1079
1073.92175746538
1073
1074
1080
1073
1067
1061.00000000001
1056
1057
1061
1065
1072.99999999999
1084
1100
1099.00000000001
1092.50638415011
1094
1107.99999999999
1121
1139.99999999998
1156
1163
1170.99999999999
1177
1177
1171
1168
1155.00000000001
1152
1134
1113.6194522543
1097
1084
1073.00000000001
1064
1051.00000000001
1048
1041
1036
1033
1029
1023
1025
1020.00000000001
995.676138532848
968
951.000000000015
936
946
990.999999999931
1109
1301.9999999998
1537
1725
1882.99999999987
1995
2001
1870.00000000016
1675
1481.79663106172
1308
1162
1053.00000000008
974
916
876.000000000019
869
867.999999999986
897
914
932.999999999991
937
952.999999999987
963
975.128206347619
984.999999999995
989
1001
1008.99999999999
1023
1025
1025
1015
1028.99999999999
1034
1030
1026
1028
1039.99999999999
1042.70092593875
1042
1046
1046
1053
1061
1061
1065
1065
1083
1095.99999999999
1106
1113
1125.99999999998
1145
1161.06679583399
1178
1197
1207.99999999998
1235
1259
1282.99999999998
1304
1323.99999999998
1348
1375
1392.99999999998
1411
1426
1438.99999999999
1446.80475112878
1450
1447
1434
1433.00000000001
1415
1392
1362.00000000003
1324
1296.00000000002
1273
1240
1207.00000000003
1178
1152.96683003062
1131.00000000002
1109
1081.00000000002
1060
1056
1050.00000000001
1045
1041
1029.00000000001
1021
1020
1012
1011
1003
1004.0582343586
1010
1010
1003
999.000000000002
998
1001
1006
998
994
996.999999999994
1001
992.000000000003
994
983
979.257272523677
984
987
979.000000000006
975
969.999999999997
980
977
969.000000000013
953
954
956.000000000004
949
951.999999999994
956
951.356067908144
948.999999999996
954
944
938.000000000004
935
938.999999999999
937
938
933.000000000006
927
929
934.999999999999
929
915.000000000011
907.384235358928
911
920.999999999997
918
916
910
917
920.000000000001
918
918
918.000000000002
916
923.999999999993
927
922
917.137416689213
920
929
923.000000000005
921
917.000000000006
914
925
926.000000000003
923
924
925.000000000001
923
925
920.940721684709
919
924.999999999998
923
926
918.000000000008
913
913.999999999993
925
923
920.000000000003
916
914
922.999999999997
918
910.831375829736
907
908
916.99999999999
924
912
907.000000000001
908
913.999999999995
919
924
921.999999999999
929
939
945.999999999997
947.773123869334
955.999999999985
976
990
1011.99999999999
1004
1009
1014
1014
1015
1014
996
989.000000000004
979
959
943.113567103678
930
918.000000000006
917
913
904.000000000005
901
890
887.999999999999
890
890.000000000007
874
854
843.000000000008
832
816.088691224823
817.999999999982
872
1013.99999999984
1224
1475
1676.99999999984
1851
1971
1948.00000000008
1801
1589.00000000018
1402
1237
1118.00000000009
1027.41870773164
958
908.000000000038
872
845.000000000025
819
814
812.999999999996
823
836
845.999999999998
844
851.999999999996
852
861
866.93389619225
870
874
874.999999999999
878
884.999999999996
887
889
890.999999999998
896
908
904
905
904.999999999998
911.643693117845
916
912
918
922.999999999994
934
945
951.999999999995
958
969
985.999999999983
1005
1019.99999999999
1035
1055
1072.09520616991
1092
1114
1118.99999999999
1152
1186.99999999997
1213
1226
1242.99999999998
1258
1274
1293.99999999998
1310
1314
1309
1310.61569283021
1307.00000000001
1289
1274
1243.00000000003
1221
1196.00000000003
1161
1125
1094.00000000002
1078
1059
1030.00000000003
1000
976.000000000017
962.555373721482
955
946.000000000011
929
913
919.999999999997
914
911.000000000004
904
899
901.999999999992
910
903
900.999999999999
903
904.743843607861
907
908
902.999999999998
910
905
905.999999999997
906
899.000000000001
902
899
907.999999999994
908
903
895.000000000005
893.592275874236
899.999999999991
906
895
895.000000000001
894
903
891.000000000006
894
890.000000000009
880
881
882.999999999999
883
879.568098086685
877.999999999998
881
878.000000000005
872
865
861.000000000001
863
867
856.000000000012
847
849.999999999995
854
850
844.000000000005
839.581787782229
836
834.999999999996
841
835.000000000005
835
839
846.999999999995
847
842
838.000000000001
839
840.999999999999
842
846
839.08765056461
833
838
836
833
824.000000000002
828
825
824.999999999999
826
822.000000000014
804
813
813.000000000006
804
796.649222493004
795.999999999996
803
808.999999999996
810
802
797.000000000002
798
804
802.000000000005
798
805.999999999992
813
823
829.999999999995
837.720510077839
854
876.999999999987
882
887.999999999995
888
880
878.999999999999
880
881
867.000000000013
857
851.000000000008
841
838
822.765703395123
806
801
796.000000000003
793
786.000000000004
784
781
785.000000000001
780
783
780.000000000003
778
771.000000000005
770.823152311266
776
777.000000000007
780
867
1034.99999999982
1268
1527.99999999979
1729
1890
1949.00000000002
1852
1646
1448.00000000016
1287
1158.80821582218
1061
992
943.000000000044
895
871
844.000000000021
827
814.000000000014
800
798
792.000000000004
789
784
785.999999999995
792.160758905508
793.000000000005
787
794
798.999999999997
804
811
808.000000000002
812
820.999999999994
824
823
825.000000000001
822
830
836.018236932807
838
838.999999999999
843
855
856.999999999999
862
868
865.999999999994
882
893.999999999993
901
912
919.999999999984
948
972.777524081198
992.999999999982
1015
1039.99999999997
1073
1097
1118.99999999998
1144
1159
1187
1214
1236.99999999999
1239
1250
1265.99999999999
1268.07071920006
1261
1249
1220
1194.00000000002
1168
1137
1105.00000000003
1067
1043.00000000002
1010
982
955.000000000025
929
911.435593057467
898.000000000012
885
878.000000000008
865
853
853.999999999995
857
849
848.000000000001
846
848.999999999996
851
845
846.999999999996
850.782757619956
855
858.999999999999
856
853
857
869
875.999999999996
878
876
877.999999999996
884
887.999999999999
886
881
878.680539738749
884
896
897.000000000005
890
890.999999999994
900
905
900.000000000008
892
891
891.999999999998
895
896.000000000003
890
892.540029092966
897.999999999998
896
890
890.000000000007
879
888.999999999991
891
888
885.000000000001
887
890
889.000000000001
889
885.000000000007
876.48956820142
877
891.99999999999
894
892
895.000000000003
887
887.999999999997
890
892
889
891
890
894.999999999996
898
902.047667724153
906
908
909.000000000003
902
897
899.999999999997
904
910.999999999997
909
909
912.999999999995
919
924
919.696759945816
915
918.999999999995
924
928
931.999999999999
930
930
931
931
935.999999999999
933
939
951.999999999989
959
952.854333790454
945
946
947.999999999999
950
951
944.000000000006
941
948
956
947
951.999999999999
946
952
969.999999999988
975.517149431425
977.999999999993
990
1004
1026.99999999998
1044
1057
1058.99999999999
1075
1080
1081
1066
1064
1070
1070
1060.75006798275
1049
1039.00000000001
1025
1021
1018.00000000001
1003
993
996.999999999995
998
992.000000000002
998
1007
998.999999999999
1007
989.653197813359
961.00000000002
948
945.999999999999
947
964
1071.99999999987
1254
1503
1707.99999999983
1882
2005.99999999991
2070
1981
1803.00000000018
1592.99629072971
1396
1248.00000000011
1142
1055.00000000007
990
943
925.000000000008
925
944
954.999999999991
966
975.999999999988
994
1015.98931835826
1032.99999999999
1039
1040
1044.99999999999
1058
1065.99999999999
1073
1078
1088.99999999999
1093
1105
1111
1110
1119.99999999999
1133.43828860652
1140
1138
1143
1145
1161.99999999999
1164
1159
1168
1177
1186.99999999999
1202
1208
1219.99999999999
1229
1242.06861864018
1260
1281
1299.99999999999
1308
1347
1378.99999999997
1414
1430.99999999998
1456
1487
1508.99999999998
1535
1544
1555.99999999998
1578.08983396357
1596.99999999999
1602
1602
1594.00000000001
1578
1565
1537
1509
1477.00000000003
1451
1429
1394.00000000004
1351
1326
1303.92749941281
1285
1270.00000000002
1246
1234
1224.00000000001
1219
1223
1213
1206
1207
1207
1208
1203.00000000001
1197
1195.9478948284
1198
1200
1201
1203
1210
1210
1214
1206
1211
1215
1217.99999999999
1224
1214
1209
1214.31707712496
1221
1220
1215
1221
1218
1222
1227
1217
1207
1206
1207
1207
1202
1194.56771123639
1192
1198
1199.00000000001
1189
1192
1190
1193
1197
1201
1194
1196.99999999999
1206
1205
1204
1198.07291228262
1190
1187.99999999999
1196
1191
1191
1185
1193.99999999999
1194
1194
1194
1190
1191.99999999999
1207
1204
1204.03696831862
1204
1200
1210
1207
1208
1204
1214
1210
1210
1208
1203
1207
1220
1216
1214.09339714704
1215
1213
1212
1216
1214
1217
1220
1221
1219
1220
1221
1218
1224
1221.00000000001
1215.77922089329
1213
1214
1219
1223
1212.00000000001
1207
1210
1212
1221
1208.00000000001
1202
1212
1213
1216
1216.16015914545
1215
1215
1214
1221
1219
1217
1214
1215.99999999999
1223
1212
1210
1208
1218
1218.02645950592
1214
1214
1208
1220
1225
1229
1228
1237
1245
1260.99999999998
1282
1290
1304.99999999999
1316
1323.94028730874
1325
1319
1322
1322
1319
1312.00000000001
1292
1276.00000000001
1267
1251
1242.00000000001
1234
1227
1224
1228.6723937525
1228.00000000001
1215
1213
1214
1217
1210
1189.00000000002
1167
1154.00000000001
1147
1139
1174.99999999994
1289
1490
1699.27544122929
1874
1997.99999999991
2091
2128
2029.00000000014
1847
1637
1447.00000000016
1285
1162.00000000009
1074
1031
1005
1022
1047.52953932498
1072.99999999998
1098
1114.99999999998
1140
1157
1173.99999999999
1182
1183
1197.99999999999
1208
1218.99999999999
1221
1223
1229.99999999999
1236.68099639286
1242
1243.00000000001
1233
1235.99999999999
1249
1251
1250
1256
1258
1254
1260
1254.00000000001
1248
1247.52423600491
1256.99999999999
1275
1281
1282
1290
1302.99999999998
1327
1334
1346.99999999999
1363
1396
1415.99999999998
1445
1462.99999999998
1487.58965033799
1516
1539.99999999998
1562
1579
1608
1631
1651.99999999998
1665
1670
1677
1667
1661
1647
1623
1588.28704862769
1559
1542
1506.00000000003
1469
1432
1402
1378
1357.00000000002
1329
1304
1290.00000000001
1275
1269.00000000001
1253
1243.3519444883
1241
1240
1236
1226.00000000001
1216
1212
1209
1218
1201.00000000001
1196
1193
1198
1198
1189.00000000001
1180.54525597528
1181
1190.99999999999
1191
1183
1179
1184
1186
1191
1183
1183
1182
1176
1180.99999999999
1184
1183.18526640358
1180
1176
1173
1168
1166
1160
1166
1163
1162
1158
1159
1161
1171
1166.04213719077
1160
1167
1167
1173
1172.00000000001
1164
1162
1161
1168
1173
1169
1168
1171
1173
1165.53387561254
1158
1162
1172.99999999999
1172
1170
1180
1175
1180
1180.00000000001
1172
1171
1169
1175
1179
1175.83674693647
1173
1176
1178
1183
1178
1171
1165
1170
1175
1182
1179
1168
1173
1171
1173.27927581662
1170
1157
1167.99999999999
1175
1168.00000000001
1163
1165
1165
1169
1169
1166
1153
1160.99999999999
1160
1160.53452569426
1161
1160
1174
1182
1181
1181
1187
1192
1207.99999999999
1221
1229
1239
1251
1256.99999999999
1266.59250241005
1267
1250.00000000001
1245
1248
1237
1223
1196.00000000002
1175
1169
1161.00000000001
1145
1129
1133
1133.31679105342
1128.00000000001
1122
1116
1118
1113
1104.00000000002
1077
1051
1034.00000000001
1029
1064
1154.99999999988
1340
1554.99999999982
1745.89216223419
1906
2029.99999999992
2077
2004
1830.00000000017
1633
1447.00000000016
1288
1167
1072.00000000007
1001
956
936.000000000004
943
958.6618654381
984
1015
1023.99999999999
1044
1061
1081.99999999999
1090
1093
1093
1100
1111.99999999999
1117
1115
1122.99999999999
1125.78206985502
1127
1132
1130
1130
1132
1141
1156
1152
1153
1154
1162
1163
1167
1171
1180.21973347415
1194
1208.99999999999
1222
1232
1241.99999999999
1261
1280
1292.99999999999
1313
1337.99999999998
1365
1390
1407.99999999998
1436
1459.50236238487
1479.99999999998
1502
1515.99999999999
1524
1543
1544
1554
1552
1541
1539
1517.00000000002
1504
1470
1430.5484393693
1402
1384
1347
1314
1283.00000000002
1263
1245
1222.00000000001
1210
1187
1175
1165
1161
1152
1142.52672854155
1139
1142
1141
1143
1135
1135
1137
1137
1135.99999999999
1145
1137
1151
1150
1146
1143.83240342408
1147
1155.99999999999
1157
1152
1155
1156
1158
1163
1164
1161
1155
1152
1162
1163
1154.45116242923
1147
1149
1155
1154
1147.00000000001
1143
1141
1139
1137
1129
1124.00000000001
1118
1124.99999999999
1130
1126.81313701611
1121
1120
1125
1123
1126
1119
1126
1125
1129
1123
1123
1129
1132
1137
1129.50448164528
1124
1132.99999999999
1135
1137
1135
1132
1129
1135
1140
1133
1134
1128
1135
1129
1128.07974629682
1129
1126
1133.99999999999
1137
1121
1121.99999999999
1126
1116
1123
1128
1125
1124
1127
1131.85341788535
1127
1109.00000000001
1105
1109
1110.00000000001
1099
1104
1105
1109
1113.99999999999
1119
1120
1127.99999999998
1151
1164.28507173007
1170.99999999999
1177
1173
1181
1186
1177
1179
1167
1161
1150
1136.00000000001
1120
1101
1101
1096.44984018734
1084
1070
1061
1056
1052
1045
1038.00000000001
1031
1030
1027
1000
979.00000000002
955
945
943.670771145606
980
1090
1282
1512
1711.99999999983
1886
2002
2034.00000000003
1927
1726
1528
1346
1211.00000000011
1099
1022.05075693546
968.000000000044
921
889.00000000002
874
872
880.999999999993
884
880
885.99999999999
898
900.999999999998
904
904
905.999999999994
917.180652961917
925
920.000000000004
921
931.99999999999
943
955
948.000000000012
939
953
961.999999999994
968
969.999999999999
971
972.865025929334
978.999999999991
986
979
988.99999999999
997
1008.99999999999
1024
1030
1041.99999999999
1059
1073
1095.99999999998
1114
1131.99999999998
1150.41615318443
1176
1208.99999999998
1227
1245
1265.99999999998
1298
1323.99999999998
1345
1362
1374.99999999999
1383
1396
1400
1394
1384.01550668447
1369
1346
1315.00000000003
1282
1243
1209.00000000002
1187
1146.00000000004
1105
1070
1048.00000000002
1022
999
978.000000000017
961.123223603379
948.00000000001
941
942
920.000000000014
916
912
910
907
895.000000000006
894
889
891.999999999997
891
883
876.329550403867
877
884.999999999995
887
886
879.000000000005
877
884
894
884
884.999999999997
887
893
901.999999999997
898
889.148395759062
885
891
898.999999999999
892
880
876.999999999998
881
880
881
869
869.999999999996
873
872
868.929509826712
862
855
863
859
852.000000000008
845
849
850
850
847.000000000009
833
829
823.000000000003
824
823.294332816511
823.999999999996
826
815.000000000003
820
813
814.999999999994
819
814
823.999999999994
823
821.000000000004
817
827
824.000000000002
826.750879360397
828
819.000000000005
820
825.999999999992
833
827
826.999999999998
830
834
838.999999999998
837
833.999999999996
844
849
853.090621814855
853
846
845.999999999994
854
849.000000000005
848
849
853.999999999996
858
861
858.000000000005
853
856.999999999991
869
869.31192726961
866.999999999998
873
876
879.999999999993
888
883.000000000004
883
888
893.999999999992
904
906
901.999999999999
913
932.999999999989
935.002528923647
935
947.999999999992
954
975
989.999999999985
1007
1010
1014
1020
1031
1026
1020
1018
1016.12526874105
1012.00000000001
1003
987
975.000000000006
973
975
963
953
949.000000000005
945
953
955.000000000006
944
940
943.437870995655
947
940.000000000017
912
892
885.000000000005
886
931
1047
1256
1514.99999999978
1724
1887
2015.99999999993
2028
1901.84769207584
1703
1503
1332.00000000013
1206
1104
1034.00000000005
980
934
908
905
920.999999999986
931
938
943.999999999992
956.699551608152
972.999999999986
986
991
995.999999999993
1006
1019
1041.99999999999
1041
1044
1050
1064
1069
1077
1083
1088.22896090289
1095
1103.99999999999
1111
1111
1113.99999999999
1124
1133
1131
1133
1142.99999999999
1151
1162
1169
1173
1187.80635081363
1206.99999999998
1223
1241.99999999998
1257
1277
1306.99999999997
1334
1359
1385.99999999998
1413
1440.99999999998
1465
1490
1512.47635287835
1530
1541
1545.99999999999
1552
1550
1545
1540
1520.00000000002
1498
1469
1428.00000000003
1400
1373.00000000002
1342
1296.45874874751
1260.00000000002
1250
1234
1213.00000000003
1182
1175
1169
1169
1159.00000000001
1151
1141
1143
1145
1145
1146.42058574951
1146
1144.99999999999
1158
1164
1159
1158
1164
1166
1169
1171
1170
1181
1184
1182
1178.68101531773
1178
1181
1181
1187
1190
1188
1182
1188
1186
1191
1183
1186
1186
1184
1180.14223588174
1175
1172
1177
1176.00000000001
1166
1166
1162
1172
1177
1181
1184
1181
1180
1188
1181.57839777959
1172
1174
1178
1188
1188.00000000001
1180
1188
1192
1189
1196
1185
1188
1193.99999999999
1204.48909716191
1208.00000000001
1199
1204
1211.99999999999
1221
1221
1214.00000000001
1211
1214.99999999999
1222
1214
1215.00000000001
1201
1208
1205.76359056784
1203
1210
1199
1200
1205.99999999999
1211
1205
1198
1199
1210.99999999999
1212
1206
1207
1204
1199.66113830797
1200.99999999999
1205
1193
1202
1201
1201
1199
1194
1195.99999999999
1202
1200.00000000001
1194
1195
1197
1197.67793364759
1198
1197
1192
1197.99999999999
1204
1201
1199
1198
1190
1194.99999999999
1199
1195.00000000001
1186
1190
1196.40761246306
1198
1194
1192
1191
1199
1196
1194
1192
1199
1204
1219.99999999999
1220
1226
1227
1243.82162605782
1268.99999999998
1287
1295
1299
1304
1311
1307
1301
1301
1293
1286
1275
1249
1232.00000000001
1228.54515423934
1225
1209.00000000002
1191
1195
1197
1201
1205
1201
1204
1202.00000000001
1193
1177
1152
1132.42238974825
1124
1137
1208
1357.99999999983
1576
1771
1925
2039
2131.99999999996
2107
1973
1767.0000000002
1554
1375
1235.91457725637
1134
1069.00000000004
1043
1033
1042.99999999998
1072
1088.99999999998
1118
1138
1148.99999999999
1167
1184
1196.99999999999
1208
1217.84876039063
1228
1240
1251.99999999999
1256
1259
1268.99999999999
1284
1285.99999999999
1297
1299
1305.99999999999
1315
1313
1311
1307.90000993522
1308.99999999999
1319
1328
1326.00000000001
1320
1325
1332.99999999999
1346
1351
1351
1361
1379.99999999998
1400
1410
1424.10362258242
1450
1483.99999999998
1506
1532
1547.99999999998
1576
1603
1633.99999999998
1653
1672.99999999998
1688
1699
1714.99999999999
1719
1710.88164023733
1699.00000000001
1689
1675.00000000002
1652
1616
1583.00000000003
1558
1535
1502.00000000004
1459
1430.00000000002
1408
1391
1373.88395331915
1355
1336
1324.00000000001
1317
1303.00000000002
1284
1271
1269
1270
1267
1264
1264
1264
1258
1255.12487569101
1254
1253
1258
1258
1261
1260
1259
1260
1265.99999999999
1270
1261
1263
1259
1266.99999999999
1268.80624740899
1263
1257
1259
1266
1267
1260
1249
1252
1256
1261
1255
1247
1252
1262
1258.57993455086
1254
1257
1246.00000000001
1246
1252
1255
1243
1249.99999999999
1256
1251
1249
1244
1246
1246
1247.39117493903
1249
1249
1251
1253.99999999999
1261
1262
1257
1253
1251
1257
1256
1254
1248
1254.99999999999
1268.73982284271
1270
1253.00000000001
1252
1252
1258
1259
1260.00000000001
1241
1247
1251.99999999999
1256
1245
1248
1248.39875692019
1246
1246
1243
1239
1241
1249
1256.99999999999
1259
1255
1258
1260
1253.00000000001
1249
1242
1243.45893460997
1250
1253
1249
1246
1244
1243
1248
1243.00000000001
1232
1239
1237
1244
1235.00000000001
1228
1230.6609996786
1236.99999999999
1241
1241
1233
1231
1234.99999999999
1239
1234
1230
1232
1240.99999999999
1253
1254
1255.99999999999
1270.83218118044
1284
1289
1314
1324
1326
1342
1351
1348
1333
1327
1325
1315.00000000001
1298
1285
1272.29953938603
1258
1245
1240
1228
1221
1223
1228
1222
1226
1219
1222
1208
1182.00000000002
1169
1156.51128635141
1152
1174
1259
1441
1648
1825.99999999986
1960
2070
2132
2066
1903
1707
1534
1366.96589550674
1220
1116
1057.00000000004
1028
1013
1029
1049
1084.99999999997
1110
1119
1133.99999999999
1151
1170.99999999999
1181
1182.72340560528
1186.99999999999
1199
1205
1211.99999999999
1217
1215
1219
1228
1226
1229
1221
1228
1228
1236.99999999999
1235.72647330757
1232
1236
1237
1251
1253
1254
1265.99999999999
1280
1294
1307.99999999999
1310
1323
1337.99999999999
1353
1373.56745047995
1393
1409
1435.99999999998
1456
1489
1503.99999999999
1523
1545.99999999999
1558
1587
1593.99999999999
1608
1620
1631.99999999999
1633.74585345103
1626.00000000001
1617
1613
1585.00000000003
1558
1536
1506.00000000003
1477
1442.00000000003
1413
1377
1346.00000000002
1328
1309
1288.55596241883
1269
1253.00000000001
1243
1233
1230
1223
1221
1222
1228
1228.00000000001
1214
1210
1209
1208.7100071572
1207
1204
1208
1213.99999999999
1224
1231
1225.00000000001
1222
1225
1230
1233
1228
1228
1230
1233.21160309266
1235
1231
1221
1221
1220
1220
1213
1221
1218
1216
1214
1205
1202
1197
1198.7536896234
1203
1203
1200
1196
1207
1197.00000000001
1189
1180
1187
1183
1188
1189
1183
1181
1180.0632973491
1182
1185
1178
1183
1177
1187
1191.00000000001
1178
1182
1184.99999999999
1194
1190
1195
1191
1197.51982139928
1208
1208
1200
1202
1204
1204
1199
1198
1201
1210
1214.99999999999
1219
1211
1219
1220.45956808464
1219
1223
1221
1221
1227
1231
1228
1223
1224
1224
1229
1232
1232
1235.43455722949
1237
1235
1241
1232
1231
1233
1241
1245
1243
1247
1233.00000000001
1232
1243
1249
1253.67247822137
1259.99999999999
1270
1283
1286.99999999999
1298
1311
1331.99999999998
1353
1351
1359
1364
1369
1367
1362
1354.38400933671
1347
1340.00000000001
1326
1316
1299.00000000001
1288
1276
1275
1268
1253.00000000001
1249
1252
1249
1253
1254.23874827406
1246
1227
1206.00000000002
1189
1169
1174.99999999997
1243
1382
1581
1781
1922.99999999989
2036
2121
2130.00000000005
2011.47314144838
1820
1626
1450
1297.00000000012
1173
1081
1045.00000000002
1030
1035
1049
1076
1105.99999999997
1129
1139
1145.63358509424
1153
1164
1181
1191
1197
1196
1213
1223
1220
1220
1223
1234
1245.99999999999
1249
1245.88931598104
1244
1248
1253.99999999999
1260
1253
1263.99999999999
1271
1275
1284.99999999999
1291
1294.99999999999
1310
1324
1332.83111585287
1342
1356
1371.99999999998
1394
1417.99999999998
1433
1454
1478.99999999998
1503
1527
1536.99999999999
1551
1574.99999999998
1593
1606.23050411409
1617.99999999999
1627
1628
1637
1627
1612.00000000001
1594
1567
1545.00000000001
1533
1498
1466.00000000003
1433
1410.00000000002
1377.14035602451
1342
1317.00000000002
1297
1282
1264.00000000002
1242
1219.00000000002
1205
1197
1189.00000000001
1175
1173
1161
1170
1178.04837982257
1169
1148
1153
1152
1154
1154
1147
1137
1145
1143
1141
1138
1136
1147
1158.88038590998
1158.00000000001
1143
1142
1144
1147
1153
1144
1141
1144.99999999999
1153
1153
1142.00000000001
1135
1134
1130.81455289994
1131
1134.00000000001
1119
1121
1127.00000000001
1116
1127
1119
1108
1104
1106
1098
1091
1089.67764784149
1091
1090
1082
1076
1078
1083
1082
1075
1069
1073
1069
1069
1066
1063
1066.1487695605
1074
1079
1068
1061
1059
1058
1067
1066.00000000001
1061
1065
1069
1078
1065.00000000001
1062
1086.05815042814
1106
1094
1073.00000000002
1057
1046
1049
1045
1043
1029
1035
1033.99999999999
1046
1039
1019.00000000002
998.197835555045
984
977.000000000009
964
972.999999999967
1050
1214
1449.99999999979
1662
1842
1973.99999999989
2064
2025.00000000009
1865
1641
1442.77885774543
1287
1165
1064.00000000007
998
949.000000000039
918
923
930
930
947
964.999999999982
983
983.999999999997
995
1008.08813259172
1019.99999999999
1031
1039
1046
1045
1047.99999999999
1063
1074
1080
1078
1095
1107
1112
1113.79276580256
1114
1117
1128.99999999999
1129
1127
1133
1144
1153.99999999999
1164
1169
1171
1181
1204
1211
1219.5191103137
1237.99999999998
1263
1283
1316.99999999997
1336
1357
1395
1425
1457.99999999997
1481
1508
1526.99999999999
1543
1563
1574.81904783497
1583
1594.99999999999
1604
1595
1571.00000000003
1538
1527
1503
1466
1432.00000000003
1392
1359
1337.00000000002
1307
1274.69853460494
1251
1240
1228.00000000001
1217
1203
1192.00000000001
1185
1190
1192
1187
1174.00000000001
1176
1176
1179
1177.05741765014
1174
1174
1171
1175.99999999999
1178
1175
1180
1180
1186.99999999999
1189
1185
1185
1193
1197
1195.34162923865
1191
1189.99999999999
1199
1198
1198
1191
1191
1189
1195
1190.00000000001
1178
1172
1174
1174.93837987613
1172
1166.00000000001
1164
1170
1169
1169
1158.00000000001
1148
1159
1164
1160
1158
1161
1159
1163.24551995257
1166
1160
1158
1155
1166.99999999999
1168
1159
1158
1162
1169
1164.00000000001
1153
1151
1157
1163.00095018075
1163
1156.00000000001
1154
1154
1151.99999999998
1169
1160
1160
1170
1167
1172
1168
1163
1168
1178.96119398981
1184
1177
1173.00000000001
1172
1180
1188.99999999999
1189
1181
1177
1183
1184
1176
1180
1177
1176.53664585741
1180
1183
1181
1179.99999999999
1187
1192
1194.00000000001
1189
1196
1201
1198
1196
1194
1190
1193.08663982072
1197
1195
1192
1185
1193.99999999998
1196
1192
1192.00000000001
1188
1197
1194
1195
1190
1192.26902960282
1198
1198
1192
1190
1194
1192
1204.99999999999
1205
1209
1214.99999999998
1228
1236
1246
1257
1277.3697442322
1297
1306
1313
1313
1311
1312
1312
1302.00000000003
1287
1280
1267.00000000002
1258
1241
1230
1225.97202702129
1222
1215
1213
1208
1204
1204.99999999999
1210
1213
1204.00000000003
1183
1157
1158
1147
1140
1179.88214809938
1307
1522
1714
1881
1996
2091
2127.00000000005
2023
1828
1608.00000000038
1414
1264
1143.00000000019
1059
1019.43488159186
1016
1035
1060
1086
1102
1120
1146
1160.99999999997
1175
1180
1188.99999999998
1204
1215
1226
1229.22335524722
1233
1247
1262
1263
1263
1271
1276
1286
1289.99999999997
1310
1296
1309.99999999997
1315
1312.14481151321
1310
1314
1326
1339
1362
1372
1388
1410
1439
1460
1478.99999999997
1500
1539
1554.99999999997
1576.5098779632
1605
1633
1667
1702
1730
1753
1778
1805
1831
1846
1854
1862.99999999998
1873
1881
1869.19959168077
1843
1815
1791
1762
1739
1695
1666
1631
1610
1586
1557
1539
1529.00000000002
1512
1497.59257394007
1486.00000000002
1477
1477
1471
1469
1460
1460
1459
1461
1467
1460.00000000001
1456
1453
1462.99999999999
1459.19733594708
1449
1447
1449
1454
1461
1457
1449
1455
1461
1461
1459
1457
1459
1459
1463.94360192416
1462
1449
1454.99999999999
1453
1449
1452
1444
1448
1445
1445
1439
1440
1442
1441
1442.86928818949
1444
1442
1445
1445
1447
1447
1446
1440
1444
1447
1445
1449
1446
1452.48455824521
1457
1449
1449
1448
1456
1452
1451
1446
1450
1452
1449
1447
1447
1440
1441.55703793039
1448.99999999999
1453
1449
1446
1447
1456
1455
1444
1439
1436
1442
1448
1442
1433
1432.05832027445
1437
1442
1441
1435
1434
1437
1437
1431
1430
1431
1429
1435
1428
1427
1426.72918380815
1427
1429
1426.00000000001
1422
1426
1428.99999999999
1430
1422
1424
1412
1419
1420
1420
1407
1408.67613734131
1420
1426
1424
1422.00000000001
1417
1417
1422
1416
1406
1406
1408
1412
1411
1401
1395.67020179779
1400
1409.99999999999
1409
1409
1415.99999999999
1424
1432
1431.99999999999
1439
1443
1463
1484
1501
1508.66915685207
1510
1514
1527
1518.00000000001
1513
1497
1493.00000000001
1484
1477
1455.00000000004
1435
1430
1426
1426
1415.51851243699
1401
1395
1400
1400
1395
1399
1391
1377.00000000003
1358
1341
1325.00000000003
1326
1393
1529
1701.57914000111
1863
1979
2071
2140
2153
2047.00000000026
1877
1676
1506.00000000029
1351
1236
1176
1159
1159
1178.41623944387
1211
1245
1269
1288
1307
1316
1329.99999999997
1349
1364
1372
1373
1391
1400
1414
1417.36056247428
1418
1427
1434
1440
1448
1438
1435
1441.99999999999
1443
1453
1444.00000000002
1444
1452
1459
1464.57193245956
1464
1463
1488
1494
1502
1509
1527
1541
1552.99999999997
1569
1585
1607.99999999995
1638
1662.48952655402
1686
1714
1738
1764
1802
1811
1823
1832
1848
1858
1860
1853
1837
1820.00000000003
1796.44688569254
1763
1722
1689
1665
1631
1602
1566
1544
1525.00000000004
1501
1480
1457.00000000004
1441
1432
1425.13265126434
1419
1411
1394
1378
1377
1378
1375
1364
1367
1372.99999999999
1377
1365
1362
1361
1363.16582000607
1366.99999999999
1369
1367
1366
1374
1370
1377
1374
1367
1371
1368.00000000001
1366
1363
1358
1364.01428647881
1368
1360.00000000001
1361
1358
1355
1363
1357
1354
1353
1354
1366
1363
1365
1363
1361.30063066491
1362
1360
1347
1354
1362
1374
1368
1360
1354
1363
1368
1369
1363.00000000001
1362.73210375321
1369
1377.99999999998
1383
1375
1371
1375
1378
1379
1377
1378
1368
1383
1389
1375
1372.61771688895
1378
1380
1380.00000000001
1374
1377
1368
1378
1380
1372
1368
1374
1388
1381
1379
1374.53006574718
1372
1378
1383
1381.00000000001
1371
1371
1378
1375
1373
1371
1367
1368
1372
1373
1365.53791478267
1362
1369.99999999999
1369
1365
1362
1363
1365
1373
1366
1359
1363
1357
1359
1357
1359.42620409264
1367
1377
1386.99999999999
1389
1392
1392.99999999999
1410
1433
1438
1446
1457
1466
1469
1464
1450.03167017785
1438.00000000001
1436
1431
1415.00000000004
1389
1371
1365
1368
1357
1342
1340
1342
1346
1347.16966653241
1343
1334
1324.00000000002
1304
1277
1259.00000000003
1240
1245
1313.99999999982
1448
1631
1807
1926
2025
2108.60657888389
2116
2002
1832
1664.00000000029
1502
1336
1201.00000000019
1121
1082
1069
1076
1101
1135
1167
1183.2257713152
1194
1210
1224
1244
1256.99999999999
1258
1265
1281.99999999998
1290
1300
1299
1295
1299
1308
1314.22078336144
1318
1321
1325
1339
1346
1337
1344
1345
1345.99999999998
1364
1366
1366
1374
1383
1394.4948776543
1411
1428
1432
1453
1477
1503
1515.99999999998
1526
1541
1565.99999999995
1590
1611
1635
1660
1678.53543839237
1699
1722
1723
1739
1750
1745
1739
1727.00000000002
1718
1698
1680.00000000005
1638
1602
1568.9621196109
1542
1521
1486
1459
1444
1426
1399
1374
1358
1352.00000000002
1339
1340
1325.00000000002
1319
1314.99992369672
1314
1318
1315
1312
1317
1307
1316
1305.00000000001
1308
1304
1316.99999999999
1307
1306
1300.00000000001
1303.23473373266
1312
1317
1317
1310
1309
1310
1316
1310
1305.00000000001
1302
1304
1311
1303
1307
1304.02857388483
1301
1306
1300
1296
1288
1290
1292
1287
1283
1274.99999999999
1290
1285
1280
1281
1280.42159535537
1281
1285
1286
1287
1276
1276
1281
1273
1269
1269
1274.99999999998
1285
1276
1275.99999999999
1278.32087494532
1280
1282
1284
1286
1283
1292
1291
1289
1294
1286
1285
1291.99999999999
1296
1287
1285.7770285377
1290
1292
1293
1289
1287
1285
1289
1297
1288
1289
1284
1286
1290
1284.1290814175
1280
1285
1281
1286
1279
1280
1281
1285
1284
1282
1284
1276
1286
1286
1285.23616742166
1286
1287
1293.99999999998
1305
1308
1300
1310
1325
1341
1351
1368
1374
1384
1390
1389.7020864904
1382.00000000002
1372
1376
1367.00000000002
1355
1331
1315
1304
1297
1285
1273
1257
1254
1254
1251.92630699511
1248
1245.99999999999
1250
1232
1207.00000000003
1191
1167
1165
1196
1275
1436
1627
1791
1917
2022.78944255719
2082
2057
1931.00000000029
1745
1554
1377.00000000031
1215
1103
1036
998
988
994
1027
1063
1086.03955983771
1098.99999999998
1110
1129
1147.99999999998
1155
1159
1159
1167
1179
1175
1175
1178
1185
1192.17119347815
1195
1191
1186
1191
1201
1200.99999999999
1206
1199
1201
1210
1215
1215
1211
1217
1230.65271770348
1247
1258
1257
1275.99999999997
1288
1307
1314.99999999998
1334
1357
1381
1414
1437
1461
1482
1505.02155117686
1527
1543
1554
1565
1583.99999999996
1602
1605
1600.00000000001
1594
1585
1567
1537
1514
1489
1460.88418569607
1431
1398
1360
1333
1306
1294.00000000002
1273
1244
1230.00000000001
1228
1220
1206
1199
1186
1191.59382267282
1199
1191
1191
1186
1186
1199
1195.00000000002
1183
1190
1195
1195
1201
1192
1193
1205.11924333694
1209
1196
1197
1200
1194
1201
1193
1187.00000000001
1184
1195
1191.99999999999
1200
1189
1183.32346189256
1182
1179
1182
1166
1155
1157
1159
1159
1155
1152
1153
1143
1141.00000000001
1132
1122.41459022432
1120
1125
1123
1119
1112
1108
1108
1112
1104
1093
1096.99999999999
1105
1110
1101
1093.87789425646
1092
1094
1098
1095
1092
1093
1096
1101
1100.00000000001
1092
1089
1095.99999999999
1098
1100
1090.81463045154
1084
1092
1097
1097
1091
1096
1094
1096
1094
1092
1092
1097
1099
1099
1095.72246038745
1096
1104
1107
1104
1100
1098
1103
1110
1111
1111
1107.99999999999
1119
1118
1119
1119.01540595082
1116
1115
1126
1124
1122
1124
1126
1129
1132
1118
1123
1128.99999999999
1134
1137.40880969581
1137.00000000001
1135
1142
1149
1166
1162
1169
1180
1198
1219
1225
1236
1247
1256.99999999998
1264.11968145333
1265
1258.00000000002
1250
1250
1249
1239
1221
1205
1198
1188
1174
1165.00000000002
1155
1155
1157.85173299847
1153
1141
1146.99999999999
1152
1152
1118
1097
1080
1088
1082
1131
1264
1473.99999999963
1661
1815.96736266401
1940.99999999981
2032
2059
1945.0000000003
1752
1543
1345
1191
1077
991
958
944
950
981.999999999938
1012.63321339581
1034
1047.99999999998
1064
1083
1098
1113
1119
1125
1139
1152
1154
1161
1162
1171
1179.82485563135
1184
1183
1181.99999999999
1192
1202
1203
1205
1204
1217
1223
1233
1225
1229
1237.98909383035
1245
1249.99999999999
1258
1260
1275.99999999996
1296
1301
1320
1334
1352
1386
1418
1440
1466
1499.96367761497
1532
1553
1566.99999999998
1582
1608
1628.99999999996
1649
1661
1655
1654
1641
1633
1592
1570
1545.83102411463
1515
1482
1444
1410.00000000005
1383
1350
1321.00000000004
1303
1279
1265
1257
1244
1239
1227
1221.99095819262
1223
1222
1213
1206
1214.99999999999
1218
1217
1209.00000000001
1208
1203
1205
1209
1215
1206
1203.12427771111
1213
1227
1222
1222
1214
1222.99999999998
1227
1225
1226
1221
1225
1230
1223
1217
1215.00023782696
1219
1225
1215
1210
1208
1204
1212
1205
1201
1192.00000000001
1195
1202
1207
1198.88178824418
1193
1202
1205
1202
1197
1193
1196
1197
1208
1198
1195
1193
1201
1194
1187.74152103877
1185
1185
1192
1186
1177
1175
1178.99999999999
1184
1184
1181.00000000001
1177
1176
1187
1190
1182.98282930189
1178
1182
1183
1189
1186
1179
1182
1180
1184
1173
1172
1170
1177
1177
1171.07224150484
1166
1168
1176
1175
1179
1171
1165
1169
1174.99999999999
1174
1171
1170
1172
1173
1178.05729858188
1176
1162
1165
1175
1173
1175
1166
1170
1174
1179.00000000001
1169
1168
1174.99999999998
1182
1171.71610526884
1163
1171
1169
1171
1182
1176
1164
1167
1170
1173
1165.00000000001
1170
1178
1177.00000000001
1174.12975647058
1170
1163
1158
1164
1162
1165
1168
1176
1185
1190
1199
1213.99999999997
1233
1248.90007620706
1260.99999999998
1269
1271
1277
1280
1282
1281
1261
1251
1243
1238.00000000001
1226
1206
1192.00000000001
1188.80072166455
1188
1182.00000000001
1174
1166
1175
1182
1180
1176
1164
1151
1128
1124.00000000002
1107
1121
1199.84341846253
1353
1563
1744
1879
1978
2059
2026
1879
1669
1474
1298
1152
1043.00000000015
981
962.277364486031
965.999999999988
979
1012
1030
1060
1083
1099
1105
1125
1134
1152
1159
1157
1160.99999999999
1169.16226097322
1179
1186.99999999999
1188
1194
1198
1206
1211
1206
1215
1225
1226
1233
1228
1232
1237.58183891779
1240
1241
1245
1242
1258
1265
1275
1282
1291
1308
1334
1351
1367
1385.59409703167
1409
1438.99999999994
1471
1494
1513.99999999996
1541
1566
1592
1604
1621
1634
1638
1638
1628
1617.93526996876
1601
1572
1548.00000000004
1523
1486
1441.00000000007
1410
1381
1349
1316
1296
1283
1257
1238
1225.09447953716
1214
1205
1204
1199.00000000001
1197
1200
1198.00000000001
1194
1188
1188
1181
1180
1184
1187
1184.41133105044
1183
1187.99999999999
1189
1183
1178.00000000001
1178
1185
1193.99999999999
1190
1185
1193
1192
1193
1191
1183.79142136767
1182
1190
1187.00000000001
1183
1181
1172
1176
1169
1173
1170
1169
1177
1173
1170
1162.39656950955
1159
1166
1167
1171.00000000001
1163
1167
1167.00000000001
1165
1168
1157
1153
1153
1159
1156.26596271448
1152
1154
1152
1159
1168
1161.00000000001
1157
1144
1161.99999999998
1158
1156
1155
1159
1161
1163.22012558929
1162
1156
1157
1158
1157
1160
1149.00000000002
1146
1155
1157.99999999999
1161
1149
1142
1148
1155.33610954739
1155
1146
1144
1142
1143
1140
1134
1131.99999999999
1140
1136
1140.99999999999
1137
1127
1126
1124.53125330484
1127
1132
1118
1126
1128
1124
1122
1118
1118.99999999999
1125
1122
1117
1115
1108
1109.449423173
1115
1114
1104
1107
1122
1119
1110
1101
1109
1111
1114
1107
1100
1103
1109.91441293651
1111
1102
1095
1090
1094
1099
1099
1095
1099
1109
1120.99999999999
1124
1128
1138.09955902713
1158
1183
1189
1192
1183
1190
1192
1182
1154
1152.00000000001
1138
1139
1116.00000000004
1099
1089.57397171847
1086
1085
1074
1066
1064
1067
1068
1063
1056
1039
1024.00000000002
1012
994
975.000000000018
984.939208614796
1055
1208
1422
1623
1791
1916
2002
1962
1815
1606
1415
1243.00000000027
1112
1016
939.807477112941
892
877
872
888
905
925
951
957
973
986
994
1004
1014.99999999999
1017
1018.37602449422
1022.99999999999
1030
1033
1034
1035
1041
1054
1057
1048
1048
1049
1060
1053
1058.99999999999
1057.7002182813
1058
1072.99999999997
1086
1090
1086
1095
1110
1122
1132
1139
1160
1183
1201
1219.5689933061
1241.99999999996
1269
1298
1327.99999999996
1346
1362
1382
1410
1436
1448
1454
1470
1478
1482
1477.99674341168
1465
1446.00000000003
1427
1397
1355.00000000006
1326
1285
1255
1225
1192
1166
1140
1116
1099
1078.53910480234
1059
1049
1049
1045
1039
1031.00000000002
1022
1027
1023
1022
1011
1013
1013
1018
1018.48934302315
1012.00000000002
1003
1004
1009.99999999999
1009
1007
1009
1018
1015
1015
1013
1005
1007
1020
1022.74228686882
1015
1006.00000000001
1007
1006
1007
1002
997
1002
1007
1006
996
989
991
992
990.607542829642
988
985
984.999999999989
993
988
986.000000000011
977
980
978
984
983
978
980
984.586040809886
983
973
973
981
981.999999999994
987
980
975.999999999999
978
978
990
985
984
991
999.510344868704
1002
993
981
986
993
993.999999999994
996
983
989.999999999992
989
998
991
987
985
990.933345013547
999
1000
993
991
993
997
996.000000000011
987
985
993.999999999977
1002
988
987
989
994.615315439406
999
999
1002
994
995
1005
1004
998.000000000008
995
993
1002
994
994
989
989.27109461107
992
989
980
980
989
993.999999999977
1009
1000
999.999999999984
1012
1019
1031.99999999997
1049
1053
1069.77389301847
1087
1089
1090
1082
1081
1087
1076.00000000002
1064
1048
1037.00000000001
1034
1012
989
981
973.198762608602
967
964
953
950
946
955
951
943.000000000036
911
887
876.000000000021
862
862
919.007790333159
1052
1263
1507
1706
1848
1960
1961
1828
1615
1416.00000000033
1244
1125
1027.00000000016
952
895.724134245065
858
838
830
845
859
862
871
880
899
890
899.999999999975
910
915
914.000000000003
913.992533921875
918
928
942
942
940
939
944
951
959
954
958
966.999999999986
972
970
961.145131802692
962
980
987
1000
1007
1011
1024
1042
1053
1071
1092
1110
1141.99999999996
1153
1166.20248240837
1185.99999999996
1208
1234
1262
1276
1287
1313
1336
1347
1356
1363
1358
1357
1356.00000000001
1338.40370123992
1312
1286.00000000005
1255
1228
1193
1159
1124
1104
1078
1050
1021
1004
988
974.302853437645
962.000000000022
952
953
952.000000000006
946
939
943
931
937
939
939
938
933
937.999999999989
941.730744756047
941
938.000000000004
940
950
948
943
944
952
955
958
953
945
946
945
949.877461770167
956
956
953.999999999998
958
958
952
947
945
942
949
946
938
951
941
936.270833408361
937.000000000002
931
921
927.999999999987
930
929
929
921
927
929
926
917
913
913
914.21008058409
921
930.999999999998
924
922
920.999999999985
933
924
921
921
923
928
921
919
919
918.296146077324
919
921
918.999999999999
923
925
928.000000000004
920
913
910
916
917
917
909
909.013892382945
917
922
910
910
912.999999999999
911
909
913.000000000004
904
904
917
910
915
915
913.271202276459
914
918
920
913
917
926.999999999975
941
940
933.999999999999
940
946
966
976
999
1016.31864238277
1023
1025
1031
1022
1006
1006
1001.00000000002
986
971
952.000000000033
937
929
918
903
898.817024193692
899
895
891
881
878.999999999986
886
867
861.000000000019
839
820
818
817
862
967
1157.53852360646
1396
1622
1789
1926
1951
1842.00000000029
1646
1440
1273.00000000027
1140
1049
977
922
876
842.194153514428
825
825
832
835
825
835
843.999999999996
842
844
846.999999999991
855
866
875
881.36253129183
883
880
882
891
895
887
898
908
915
910
913
920.999999999994
923
939
946.023836518652
947
953
964
977
995
1000
1010
1022
1040
1057.99999999997
1074
1095
1119.99999999995
1148
1175.32867561962
1201
1227
1259
1291
1319
1330
1360
1372
1381
1398
1397.00000000002
1383
1378
1363.00000000004
1336.06262233858
1304
1273
1243
1206
1164
1122
1088
1061
1038
1027
1001
980.000000000024
972
963
946.148718820825
931
924
918
929
920
916
906
908
909
906
901
904
899.999999999988
916
915.7120323801
905.000000000015
903
912
921
923
921
926
927
929
936
931.000000000008
930
926
927.535495553482
932
933
931
933
929
927
931
924
915
922
927
923
917.000000000008
915
916.116081698685
917.000000000001
914
907
906
909
918
915
916
908
910
905
899
901
893.00000000001
894.8604441438
904
908.000000000006
901
903
906
906
914
907
907
912
921
919
918
916
916.34643990342
917
916
917.999999999995
920
921
925
932
927
926
936
941
934
939
946
948.309985918985
948.999999999997
951
951
949.999999999995
956
958
960
955
952
963
964
970
966
971
968.544772480518
967
972.000000000009
959
959
963.999999999994
968
976
966
967
964
968
973
973
971.05567604425
972
977
978
981.999999999988
989
994
1004.99999999998
1018
1032
1032
1047
1078
1090
1095
1094.57154785145
1097
1107
1108
1103
1094.00000000002
1088
1086
1071.00000000003
1056
1034
1028
1021
1020
1011
1003.3699309098
1002
1008
1015
1006
1003
996.000000000014
986
966
951
943
936
979
1105
1304
1527.58936040361
1730
1881
1992
2030.00000000006
1917
1720
1508.00000000035
1331
1191
1094
1013
949
913
900
904.408863836439
916
929
951
963
969.99999999999
979
1000
1011.99999999999
1020
1032
1046
1049
1061
1069
1073.18621888227
1078
1087
1101
1111
1106
1108.99999999998
1124
1132
1140.99999999999
1141
1143
1150
1159
1172
1174.17208714702
1174
1184
1199
1207
1222
1229
1251.99999999996
1273
1297
1317.99999999997
1336
1364
1397
1425.3997662526
1448
1471
1510
1540
1546
1569
1576
1587
1602.99999999998
1611
1613
1593.00000000003
1580
1558
1538.39599555878
1511
1468
1435
1406
1377
1347
1319
1289
1264
1253.00000000002
1234
1213
1197.00000000002
1195
1195.192201759
1190
1178
1171
1175
1177
1184
1177
1174
1175
1178
1174
1174
1173
1182.99999999998
1190.20895723831
1188
1181
1187
1188
1202
1207
1209
1203
1208.99999999999
1212
1213
1207.00000000001
1207
1215
1218.35338250163
1214
1206
1204
1197
1205
1204
1195
1200
1193
1195.99999999999
1199
1195
1193
1194
1191.92239853685
1190
1192
1191
1184
1196
1197
1198
1188
1194
1203
1201
1204
1199
1200.57351633109
1206
1208
1208
1204
1203
1209
1214
1214
1208
1210
1214
1213
1212
1210
1208.91727690174
1211.99999999999
1220
1222
1210
1211
1217
1222
1216
1220
1215
1221
1220
1219
1216
1218.11719455551
1221
1220
1222
1221
1210
1213
1223
1216
1214
1210
1209
1215
1219
1210
1208.78317291193
1214
1217
1216.99999999999
1220
1209
1211
1212
1208
1207
1207
1205
1209
1209
1204
1202.79798527905
1208.99999999998
1219
1216
1209.00000000001
1206
1209
1211
1220
1214
1219
1221
1213
1214
1209
1206.58496088673
1209
1213
1212
1206
1201.99999999999
1215
1223
1235
1236
1242
1252
1274
1293
1308.05292421177
1316
1317
1326
1335.99999999999
1337
1328
1319
1320
1316
1308
1296
1281
1267
1249
1242.15292842672
1239
1233
1239
1238
1233.00000000001
1224
1220
1228
1218
1204
1181
1173
1160
1168
1229.88551801041
1364
1563
1749.9999999997
1901
2004
2080.99999999991
2087
1978
1791
1574
1388
1242
1133
1067
1035.97166461809
1030
1042
1072
1110.99999999994
1136
1149
1162.99999999997
1186
1205
1214
1217
1221
1242
1255
1262.79352475754
1269
1274
1280
1294
1292.00000000001
1288
1296
1296
1298
1299
1304
1304
1306
1315
1317.99064727497
1325
1338
1329
1345
1345
1342
1349
1360
1376.99999999995
1402
1402
1421
1446
1472.80894731172
1503
1530
1537
1560
1588
1620
1640
1653.99999999997
1675
1699
1713.99999999998
1718
1717
1711
1708.23861738103
1694
1659
1633
1609
1564
1543
1509
1469
1440.00000000005
1411
1380
1366.00000000005
1329
1314
1308.23229950665
1301
1290
1280
1278
1284
1282
1283
1276
1267
1269.99999999999
1273
1263
1261
1253
1256.20970546248
1262
1258
1253
1248
1244
1239
1239
1235.00000000001
1233
1241
1241
1241
1240
1230
1227.53376940282
1235
1241
1226
1231
1225
1227
1227
1214
1205.00000000001
1204
1207
1206.00000000001
1202
1206
1209.67369336918
1212
1215
1219
1220
1212
1222
1222
1223
1219
1213
1215
1215
1218
1218.9444907409
1219
1221
1223
1220
1210
1209
1214
1215
1221
1220
1220
1225.99999999999
1226
1230
1227.16328877901
1226
1234
1234
1232
1231
1222
1232
1239
1229
1222
1226
1226
1232.99999999999
1231
1221.29929951144
1215
1220
1228
1226
1214
1214
1218
1222
1213
1210
1201
1201
1206
1208.00000000001
1198.80666492455
1192
1198.99999999999
1202
1195
1194
1187
1186
1196
1185
1186
1189
1182
1191
1186
1181.42382867306
1177
1173
1185.99999999999
1184
1182
1171
1169
1179
1175
1176
1170
1178
1174
1180
1182.47468994958
1181
1185
1203
1216
1239
1255
1259
1268
1272
1281
1268
1265
1259
1250.0201879489
1236
1218
1209.00000000002
1194
1185
1173
1161
1159
1170
1163
1158
1147
1146
1157
1155.81177436575
1138.00000000005
1110
1091
1081.00000000003
1067
1101
1199
1382
1595
1770
1911
2011
2060
1977
1806.4748390856
1606
1419.00000000031
1259
1131
1042.00000000013
982
949
940
957
988
1010
1033
1050
1069
1088.38201623989
1102
1108
1115.99999999999
1123
1139
1146
1143
1145
1152
1159
1167
1163
1168
1165
1170.79896844489
1177
1172
1170
1177.99999999999
1182
1188
1187.00000000001
1186
1200
1206
1218
1230
1232
1240
1261.8911959812
1283
1292
1305
1324
1350.99999999994
1384
1400
1423.99999999995
1453
1476
1493
1515
1535
1542
1552.62359546771
1572
1589
1577
1583
1574
1561.00000000003
1542
1517
1487.00000000005
1459
1415
1378
1338
1311.13952907348
1286
1252
1230
1208
1186
1169
1158
1152.00000000002
1133
1127
1121
1124
1125
1125
1118.85397019741
1117
1123
1113
1113
1107
1105
1108
1109
1105.00000000001
1102
1102
1105
1104
1100
1093.59576690856
1095
1109
1113
1104
1104
1114
1108
1114
1100
1107.99999999998
1109
1107
1109
1097
1092.39339931843
1095
1099
1106
1104
1100
1096
1101
1093.00000000001
1093
1088
1084
1086
1086
1081
1077.9161968564
1079
1084
1086
1074
1073
1082
1086
1088
1092.00000000001
1080
1080
1090.99999999998
1094
1090
1085.73927405688
1086
1092
1098
1106
1098
1096
1098
1103
1098
1097.99999999999
1104
1109
1114
1111.94000412432
1105
1098
1096
1108
1120
1112
1101
1098
1099
1104
1105
1106.99999999999
1113
1120
1119.52868605276
1114
1110
1113
1115
1117
1109
1109
1114
1127
1128
1118
1111
1110.99999999999
1119
1121.50569118168
1121
1122
1120
1119
1117
1128
1127
1121
1130
1125
1125
1125
1130
1132.99999999999
1137.13306623807
1143
1149
1158
1181
1187
1196
1217
1229
1246
1253
1254
1240.00000000002
1235
1229
1225.4161551256
1213
1188
1180
1166
1152
1142
1125
1117
1113
1112
1104
1108
1096
1109
1101.41460965132
1071.00000000006
1038
1023
1013
1025
1084
1215
1414
1621
1796
1927
2021
2027
1898.07876537355
1708
1533
1355.00000000031
1201
1092
1009
953
916
905
921
957
973
984
999
1026.30699239305
1051.99999999997
1063
1069
1068
1070
1079
1089
1092
1093
1104
1109
1111
1106
1115
1118.89491322112
1124
1135
1128
1129
1132.99999999999
1143
1155
1147
1146
1153
1166
1183
1195
1196
1200.08459810826
1215
1238
1248.99999999998
1264
1285
1307.99999999995
1340
1357
1380
1402
1430
1451
1463
1493
1510.92880975318
1521
1533
1532
1527
1526
1512
1499.00000000003
1474
1446
1412
1381
1359
1327
1282
1256.12127261665
1237
1208
1181
1149
1133.00000000002
1118
1107
1102
1088
1077
1069
1073
1070
1062.54425937753
1057
1057
1058
1053.00000000001
1050
1044
1056.99999999998
1058
1052
1049
1048
1061
1052
1053
1049.99517200799
1045
1045
1045
1049
1045.00000000002
1038
1050
1047
1047
1040
1046
1044
1044
1045
1038.66244079431
1032
1034
1042
1043
1036
1032
1034
1041
1039.00000000001
1031
1031
1030
1030
1029
1023.6714210526
1020
1023
1028
1034
1024
1020
1023.99999999999
1033
1032
1028
1031
1023
1030
1031
1027.25310839436
1024
1023
1024
1033
1028
1030
1032
1027
1034
1042
1037.00000000002
1031
1038
1045
1046.75541823267
1045
1043
1045
1049
1052
1047
1038
1047
1053.99999999999
1054
1044
1045.99999999999
1053
1060.61348962662
1058
1044
1046
1041
1047
1045
1043
1035
1039
1038
1042.00000000001
1029
1026
1026.99999999999
1032.36991700042
1032
1021
1020
1018
1018
1017
1019
1011
1020
1026
1034
1029
1039
1039
1050.91116088534
1067
1075
1089
1105
1109
1110
1117
1112
1106
1108
1096
1083
1061.00000000004
1043
1029.52430200381
1019
1009
995
988
989
985
984
978
981
983
983.000000000023
957
934
930.000000000006
925.019988686086
933
983
1113
1323
1553
1744
1887
1997
2005
1873
1673
1467.00000000034
1295
1164
1068.8492454249
995
933
897
887
897
909
920
925
941
951
966
981
981.999999999992
995.57732329093
1013
1019.99999999999
1026
1031
1033
1045
1059
1073
1073
1074
1084
1099
1101
1105
1108.56763571669
1112
1118
1124.99999999999
1124
1126
1139
1142
1158
1159
1169
1183
1202
1220
1234
1250.7983956123
1271.99999999996
1297
1325
1351.99999999997
1366
1397
1436
1456
1479
1505
1527
1538
1548
1553
1555.23272857786
1553
1545.00000000002
1534
1511
1482.00000000006
1450
1423
1390
1355
1314
1283
1253
1233
1215
1192.81635810372
1174
1165
1155.00000000003
1137
1132
1129
1126
1127
1123
1123
1110
1114
1118
1122
1118.0586461806
1112
1113
1120
1121
1122
1121
1124
1127
1135
1131
1134
1131
1137
1145
1140.53907679487
1141
1156.99999999998
1156
1154
1155
1152
1149
1148
1152
1147
1145
1144
1148
1148.51869065707
1144
1137
1135
1141
1141
1144
1132
1142
1144
1146
1139
1135
1132
1142
1148.55086073741
1144
1132
1134
1142
1138.00000000001
1135
1135
1130.99999999999
1141
1140
1139
1140
1142
1154
1153.83075662166
1148
1149
1152
1152
1159
1153.00000000001
1153
1147
1162.99999999999
1157
1165
1164
1156
1159
1161.62750447548
1161
1159
1159
1165
1174
1171
1168
1169
1176
1176
1175
1175
1173
1179
1187.34674111852
1189
1182
1181
1178
1184
1183
1178
1181
1180
1183
1177.00000000001
1174
1164
1168
1174.16556676323
1173
1165
1165
1161
1163
1167
1167
1169
1167.99999999999
1176
1180
1173
1169
1167.87450265798
1173
1182
1175
1172
1172
1182
1185
1183
1181
1178
1177.99999999999
1183
1182
1187
1191.70886366256
1198
1210
1223
1230
1245
1266
1277
1292
1288.00000000001
1290
1293
1303
1290
1281
1270.31921028944
1262
1259
1246
1236
1224
1217
1214
1213
1204
1200
1202
1211
1199.00000000002
1196
1185.20787339967
1168
1153
1141
1133
1139
1221
1394
1604
1772
1910
2014.99999999982
2098
2057
1908.00000000033
1705.06001405604
1496
1320
1184
1083
1034
1011
1005
1026
1058
1077
1106
1130.99999999997
1139
1151
1159.94384639228
1172
1192
1203
1209
1210
1218
1235
1235
1239
1242
1250
1258
1269.99999999999
1270.24669813316
1270
1282.99999999997
1296
1292
1287
1298
1293
1311
1307
1305
1309
1316
1326
1336
1340.75650298843
1348
1364
1379.99999999997
1399
1417
1435
1456
1488
1516
1541
1555
1579
1607
1631
1648.8273563663
1661.99999999998
1674
1687
1688
1684
1665
1645
1628
1607
1566
1536
1502
1476
1448
1413.30204398979
1378
1350.00000000004
1333
1316
1294
1280
1276
1267
1267
1259
1253
1249
1253
1252
1249.56512558983
1242
1230
1233.99999999999
1240
1243
1238
1233
1239
1248
1249
1241
1239
1244
1248
1245.23433305834
1241
1242
1248
1252
1251
1245
1237
1241
1239
1240
1244
1234
1228
1228.07689864869
1230
1230
1228
1229
1227
1232
1223
1217
1221
1228
1227
1229
1224
1225
1231.68971163669
1234
1229
1232
1226
1233
1233
1232.00000000001
1224
1218
1226
1225
1224
1225
1223
1229.787179578
1238
1238
1235
1233
1235.99999999999
1236
1223
1234.99999999997
1244
1242
1244
1244
1239
1248
1250.81809911977
1249
1249
1243
1234
1240
1243
1244
1243
1239
1242
1244
1243
1238
1238
1236.79150813085
1233
1229
1228
1224
1224
1227
1224.00000000001
1221
1219
1222
1220
1212
1205
1199
1198.08676103707
1201
1205
1206
1197
1195
1198
1199
1191.00000000001
1192
1187
1183
1186
1179
1177.08868757097
1177
1177
1189
1174
1173
1173
1175.99999999999
1183
1173
1170
1166
1164
1168
1171
1166.00831157246
1163
1171
1181
1188
1185
1188
1194
1212.99999999997
1229
1245
1260.99999999996
1281
1285
1287
1281.75071799844
1275
1274
1272
1262
1247
1236
1217
1203
1194.00000000003
1176
1172
1172
1174
1169
1156.28611106648
1152
1164
1167
1166
1136
1113
1106
1092
1090
1137.99999999985
1270
1480
1670.99999999969
1833
1960.99305863727
2040
2045
1932
1735
1543
1356
1210
1099
1020
970
953.000000000004
962
986
1011.99999999996
1028.70881239593
1046
1073
1096
1107
1114
1124
1125
1142
1159
1160
1159
1162.99999999999
1171
1172.5719452226
1169.00000000001
1166
1171
1183
1186
1181
1178
1185
1190
1201
1196
1197
1207
1216.99999999998
1229.81331522484
1235
1229
1241
1261
1274
1290
1304
1324
1355
1378
1393
1415
1448
1487
1517.96188584291
1536
1543
1555
1580
1598
1605
1613
1619
1617
1613
1593
1572
1544
1528
1500.90812385519
1461.00000000008
1418
1386
1362
1331
1299
1272
1249
1243
1228
1207
1196
1177
1175.99999999999
1180.79150079369
1176
1158.00000000003
1151
1156
1159
1152
1144
1141
1146
1151
1148
1152
1142
1145
1155.83838831607
1159
1149
1148.99999999999
1156
1161
1165
1157
1156
1152
1158
1161
1162
1161
1163
1166.53799144967
1165.00000000001
1158
1159
1150.00000000001
1156
1160
1153
1152
1146
1152
1156
1149
1152
1154.75944298453
1155
1154
1150.00000000001
1146
1141
1145.99999999998
1151
1138
1138
1142
1140
1140
1136
1136
1130.10322657685
1142
1182
1190.29437594705
1186.99999999999
1200
1202
1206
1204
1211
1228
1255
1270
1272
1280
1285.70380573702
1286
1280
1268
1266
1262.00000000001
1249
1227
1208
1191
1178
1182
1179
1168
1161
1159.58593269341
1158
1153
1152
1152
1147
1123.00000000004
1107
1087
1069
1083
1142
1284
1476
1669
1827.21299347881
1950
2038
2053
1940
1753
1565
1390.00000000029
1243
1116
1039
982
965
959
979
1006.95119477325
1031
1048
1063
1072
1091.99999999997
1105
1120
1122.99999999999
1131
1136
1139
1152
1153
1152.73484778299
1159
1172
1178
1173
1178
1182
1187.99999999999
1194
1194
1198
1199
1215
1230
1231
1234.94065897171
1240
1244
1260
1271
1279
1294
1313
1333.99999999997
1350
1372
1380.99999999996
1415
1440
1461
1482.26022859711
1507
1536
1557
1566
1584
1601
1618
1626
1630
1624
1611
1607.00000000002
1582
1562
1537.58235162838
1506
1472
1442
1406
1370
1345
1309
1296
1281
1251.00000000004
1239
1227
1222
1218
1206.91172888648
1196
1193
1192
1187
1185
1183
1185
1178
1172
1168
1169
1173
1181
1184
1181.73478119015
1182
1187
1183
1185
1183
1183
1184
1185
1185
1185
1194
1194.99999999999
1207
1210.22658204535
1202
1192
1198
1207
1206
1210
1198
1202
1203
1203
1190
1186
1181
1190.99999999998
1192.41958117047
1185
1179
1181
1180
1181
1175
1179
1179
1181
1191
1176
1168
1168
1166
1175.29957547701
1182
1173
1170
1180
1182
1182
1182
1174
1185
1181
1184
1173
1173.99999999999
1177
1175.09703948467
1174.99999999999
1180
1178
1181
1192
1186
1180
1181
1188
1189
1193
1183
1182
1181
1185.92518780263
1185
1173.00000000001
1178
1178
1182
1178
1169
1174
1172
1175
1177
1180
1169
1162
1168.71103482936
1175
1170
1171.99999999998
1185
1193
1202
1203
1204
1224
1238
1252
1262
1258
1262.09069035424
1265
1254.00000000002
1241
1227
1212.00000000002
1206
1185
1158
1140
1125
1116
1102
1088
1087
1088.44763250992
1086
1081
1083
1073
1059
1041
1026
1015
999
1014
1092
1243
1458
1660
1817.60328491908
1942
2029
2006
1866.00000000033
1655
1457
1295
1153
1055
990
933
906
894
902
925.380647257187
948
958
965
972
977.999999999979
993
1000
1015
1006
1014
1027
1047
1042
1049
1054.58559370164
1061
1074
1079
1074
1077
1082.99999999999
1089
1097
1096
1096
1107
1120
1125
1131
1135.06656138934
1141
1153
1165
1172.99999999998
1187
1208
1225.99999999996
1249
1262
1281
1305
1339
1358
1380.84293129501
1406
1428
1453
1467
1487
1500.99999999999
1507
1523
1523.00000000001
1518
1503
1483
1458
1434
1395.12232798234
1349
1310
1280
1241
1205
1175
1149.00000000004
1126
1109
1092.00000000002
1080
1060
1053
1049
1042.89492187534
1040
1043
1043
1043
1034
1025
1027
1031.99999999999
1037
1028
1024
1028
1035
1041
1037.6460566162
1036
1043
1040
1042
1042
1035
1040
1053
1060.00000000001
1050
1050
1040
1046
1044
1041.571627564
1044
1050
1051
1048
1046
1033
1032
1034
1041
1038.00000000001
1032
1036
1035
1040
1033.61016477172
1022
1017
1019
1026
1023
1025
1025
1024
1023
1029
1025.00000000001
1021
1023
1026.25443581656
1028
1023
1008
1015
1014
1021
1008
1016
1019
1028.99999999999
1029
1026
1027
1024
1030.82856135482
1037
1035
1043
1036
1045
1054
1049
1047
1053
1060
1064
1059
1058
1055
1063.45534764542
1073
1072
1071
1071
1083
1088
1080
1079
1077
1086
1091
1086.00000000001
1079
1078
1080.35613905079
1084
1087
1084
1077
1087
1085
1090
1082
1091
1085
1088
1085
1076.00000000002
1069
1076.83331871096
1087.99999999999
1090
1089
1086
1099
1112
1113
1111
1114
1122
1138
1155
1166
1177.99999999998
1187.13770780121
1192
1192.00000000001
1186
1182
1180
1170
1165
1152
1133
1123
1116
1112
1099
1091
1089.43813340349
1090
1089
1085
1080
1083
1077
1075
1046
1029
1025
1017
1031
1120
1306.89918171722
1523
1701.9999999997
1856
1966
2045
2003
1839
1628
1429
1262
1141
1047
985
947
926.632461998022
931
959
977.999999999972
994
1009
1024
1045
1058
1068
1069
1087
1095
1108
1119
1122.76473451773
1123
1128
1147
1156
1156
1159
1166
1177
1177
1172
1182
1193
1200
1200
1202.43006524831
1212
1226.99999999998
1235
1241
1248.99999999997
1267
1281
1300
1314
1327
1349
1367
1394
1417
1439.35056462628
1466
1500
1533.99999999996
1548
1573
1581.99999999997
1609
1624
1644
1641
1643
1643
1640
1624
1591.04595737651
1558
1537
1508
1468.00000000007
1427
1391
1360.00000000005
1338
1316
1298
1269
1252
1237
1229.10432693161
1223
1213
1209
1213
1211
1204.00000000001
1199
1201
1203.99999999999
1206
1202
1196
1201
1204
1202.19101480473
1199
1197
1198
1208
1206
1209
1207.00000000001
1204
1216
1217
1218
1210
1212
1205
1205.34519515163
1209
1207
1207
1215
1214
1212
1209
1205
1209
1213
1211
1208
1202
1209
1221.65397234997
1222
1206
1209
1214
1221
1220
1213
1217
1219.99999999999
1229
1231
1232
1223
1226
1235.44780252967
1238
1228
1225
1233
1229
1231
1226
1227
1229
1232.99999999998
1246
1244
1235
1237
1239.91336748662
1242
1243
1239
1243
1244
1248
1249
1240.00000000002
1238
1250
1248.00000000001
1244
1241
1244.72343222579
1248
1246
1249
1246
1254
1249
1255
1250
1249
1251
1255
1266
1259.00000000001
1259
1258.30094674474
1261
1269
1264
1264
1257
1265
1274
1277
1273
1275
1271
1269
1259
1265.99999999999
1263.07122089821
1257
1260
1258
1251
1241
1245
1248
1245
1239
1236
1240
1240
1239
1234
1238.22723274558
1246
1248
1246
1242
1236
1242
1247
1251
1250
1245
1252
1253
1256.99999999999
1260
1255.67334740256
1256
1270
1280
1281
1288
1299
1313
1332
1346
1358
1377
1393
1401
1402
1399.65919962418
1398
1398
1391
1378
1370
1363
1352
1345
1335
1326
1319
1325
1320
1312.71433104028
1309
1310
1315
1322
1310
1282
1263
1263
1251
1265
1333
1497
1682
1835
1950.56672155939
2039
2101.99999999993
2094
1965
1765
1551
1371
1235
1148
1096
1076
1079
1104
1140
1169.34386719185
1193
1215
1234.99999999996
1257
1261
1264
1270
1284
1294
1302
1307
1312
1323
1330
1330.69541973607
1332.99999999999
1339
1336
1347.99999999998
1350
1349
1352
1356
1364
1366
1366
1369
1374
1381
1383.09264997883
1385
1392.99999999998
1406
1421
1427.99999999999
1438
1451
1475
1500
1522
1542
1561
1583
1623
1652.36110206809
1671
1686
1697.99999999996
1726
1748
1753.99999999998
1772
1770
1777
1769
1742
1719
1689
1658.81338033339
1627
1589
1549
1520
1488.00000000006
1458
1436
1402
1379
1373
1357
1336
1327
1321
1318.82154577153
1316
1310
1308
1300
1303
1302
1303
1293
1287
1292
1300
1296
1292
1293
1296.32194486157
1300
1300
1291
1293
1301
1298
1297.00000000001
1290
1287
1285
1289
1284
1279
1272
1274.68179680135
1282
1283
1273
1271
1281
1279
1287
1280.00000000001
1281
1280
1285
1286
1281
1273
1283.42205879343
1294
1288
1289
1288
1291
1295
1294
1287
1285
1286
1288
1292
1288
1293
1290.46457594997
1288
1292
1284
1286
1280
1291
1281.00000000002
1274
1280
1280.00000000002
1272
1285
1278
1268.90116130379
1271
1280
1271
1275
1272
1268
1267
1271
1263.00000000002
1257
1256
1257
1253
1249
1242.24314762631
1240
1247
1249
1245
1237
1236
1242
1246
1238
1229.00000000001
1226
1228
1233.99999999999
1233
1225.29597022555
1220
1222
1219
1214
1212
1208
1215
1218
1219
1215
1206.00000000001
1205
1201
1197
1194.22554712352
1191
1189
1195
1192
1186
1177
1185
1183
1180
1179
1168
1175.99999999998
1181
1186
1190.56276565544
1192
1192
1201
1208
1215
1242
1251
1271
1276
1282
1272
1272
1274.00000000001
1264
1248.74013468475
1230
1212
1209
1201
1180
1173
1163
1169
1168
1162
1158
1153
1162
1162.00000000002
1145.82720301178
1123
1101
1079
1071
1054
1095
1210
1401
1612
1783
1903
2002.99999999986
2031
1930.92552436033
1748.00000000036
1548
1370
1222
1103
1014
947
920
922
940
964
984
1002
1022.99999999996
1042.91193699631
1057
1063.99999999999
1072
1081
1088
1095
1098
1096
1106
1102
1112
1113
1118
1124
1128.55596169367
1129
1125
1125.99999999999
1132
1135
1142
1137
1133
1140
1147
1153
1156
1164
1176
1195.41922661632
1211.99999999998
1219
1232
1246.99999999996
1272
1297
1320
1333
1362
1388
1409
1431
1458
1480
1505.14934728221
1527
1536.99999999999
1541
1545
1540
1542
1528
1498
1466
1437
1407
1368
1327
1296
1269.38355372818
1239
1206
1186.00000000005
1151
1140
1123
1107
1098
1080
1082
1080
1078
1075
1073.60497053146
1072
1068
1064
1061
1062.99999999999
1069
1072
1067
1070
1065
1067
1069
1066
1060
1064.17971271377
1070
1067
1062
1061
1064
1065
1068
1069
1066
1065
1074
1075
1078
1075
1068.38502981593
1065
1068
1068
1061
1053
1056
1060
1051
1037
1037
1035
1041
1039
1036
1028.9077820291
1028
1036
1026
1024
1021
1022
1028
1030.00000000001
1022
1019
1019
1024
1026
1026
1021.24758943234
1022
1033
1032
1027
1021
1019
1025
1032
1030.00000000001
1026
1027
1030
1039
1038
1029.8881471787
1026
1032
1036
1040
1033
1038
1047.00000000002
1026
1038
1031.00000000001
1034
1033
1041
1045.18792180833
1044
1043
1047
1046
1047
1035
1029
1031
1034.99999999999
1037
1027
1023
1026
1029
1025.38875101252
1018
1012
1010
1009
1010
1007
1008
1013
1027
1033
1035
1038
1032
1045
1059.01742194068
1071
1084
1096
1109
1110
1101
1092
1084
1083
1072
1061.00000000003
1038
1025
1009
993.39470693866
984
980
969
963
958
956
948
940
946
946
914
889.00000000004
870
869
880.467128127639
940
1083
1293
1526
1706
1853
1964
1950
1822
1618
1429
1261
1134.00000000019
1044
973.646740708785
917
875
858
860
870
885
892
904
922
928
932.999999999989
938
938
944.228241571439
954
958
951
956
962
975
977
977
972
982
978
976
973.000000000002
975
980.758929936014
988.999999999983
996
993
996
1009
1023
1024
1029
1037
1049
1069
1090
1095
1110.99999999996
1131.68228402087
1157
1185.99999999996
1205
1229
1252
1273
1303
1316
1346
1358
1378
1397
1395
1399
1402.8798030944
1398
1380
1351
1317
1289
1258
1232
1191
1151
1122
1096
1074
1048
1033
1019.65922560118
1011.00000000001
1008
991
972
968
972
966
962
953
943
948
951
953
945
940.389948197013
940
940.999999999995
945
946
940
946
963
957
947
946
954
961
955
948.839896758009
949
956
962
963.000000000004
958
954
964
967
963
959
956
954
955
958
950.584740947298
947
957
956
958
958
958
955
960
960
953
949
953
950
945
933.869437849828
928
937
944.999999999994
943
936
932.000000000004
933
941
941
936
935
930
934
940
936.625956320182
932
935
940
943.000000000006
938
946
942.000000000001
946
939
937
935
934
937
937
936.133974398581
934
933
942
942
941.000000000005
935
927
926.999999999988
932
919
918
914
925
932
928.320510751875
919
912
913
907
910
911.999999999992
920
929
946
959
951
958
979
994.098235556758
1002
1005
1006
1020
1020
1019
1002
987.000000000009
987
974
951
933
922
914
910.688820827085
907
898
888
882
881
879
877
873
867.000000000025
848
837
821
815
835
914.937881252567
1079
1320
1545
1730
1881
1972
1924
1753
1540
1360.00000000029
1210
1101
1018
957
909.184610959431
876
856
836
836
838
843
842
847
856
869
877.999999999991
880
879
879
891.227726586902
903
903
907
914
921
935
935
937
937.999999999985
953
960
956.000000000003
960
969
974.180765162999
980
989
990
995
1010
1025
1028
1045
1058
1080.99999999996
1098
1121
1133.99999999997
1161
1191.44231204488
1221
1249
1274
1306
1336
1366
1389
1406
1421
1439
1455.99999999998
1458
1450
1439.44912531125
1422
1392
1357
1334
1293
1260
1229
1190
1159
1128
1104
1090
1070.00000000003
1059
1047.78282402877
1034
1023
1022
1010
1006
1007
1020
1021
1015
1011
1011
1020
1025
1022.00000000001
1020.71905556164
1023
1026
1023
1022
1031
1027
1034
1046
1042
1041
1044
1053
1054
1054
1046.99793976818
1042
1047
1051
1055
1045
1044
1047
1048
1050
1034
1035
1039
1043
1031
1021.18076096982
1019.99999999999
1026
1029
1022
1021
1013
1015
1018
1015
1019
1008
1009
1017
1019
1009.18241069881
1000
1001.99999999999
1006
1013
1011
1010
1015
1013
1013
1010
1008
1014
1022
1025.03076354309
1023.00000000001
1020
1024
1026
1027
1020
1015
1015
1021
1013
1019
1012
1019
1015
1014.79246599609
1019
1021
1019
1019
1024.99999999999
1025
1016
1016
1030
1031
1022
1021
1021
1028
1029.78292614708
1030
1031
1023.99999999999
1040
1043
1031.00000000001
1031
1030
1026
1034
1025
1021
1021
1022
1024.68033474967
1024
1017
1014
1018.99999999999
1024
1029
1022
1019
1022
1028
1026
1017
1015
1020
1025.28568122696
1028
1026
1019
1020
1030.99999999999
1027
1015
1007
1016
1018
1033
1042
1041
1051
1069.2076735548
1083
1089
1110
1130
1140
1145
1141
1137
1138
1141
1137
1126
1104
1087.3845698432
1080
1076
1058
1039
1043
1040
1032
1025
1027
1032
1036
1038
1027
998
984.838029108689
981
972
974
1036
1187
1424
1639
1808
1931.9999999998
2026
2023
1872
1664
1457
1293.04988689845
1170
1076
1005
950
931
934
942.999999999982
953
961
973.999999999966
996
1010
1021
1020
1028.0608079346
1041
1050
1060
1064
1067
1081
1092
1100.99999999998
1106
1102
1109.99999999998
1117
1117
1121
1125.43318149418
1129
1133
1139
1143
1152
1162
1160
1164
1160.99999999999
1172
1180
1194.99999999996
1213
1217
1231.88836927297
1256
1280
1303
1322
1345
1383
1421
1449
1471
1487.99999999997
1511
1537
1549
1563.4228574299
1578
1585
1585
1577
1557
1543
1523
1492
1462
1429
1382
1350.00000000005
1319
1295
1261.18892689876
1229
1210
1191
1187
1170
1156
1146
1144
1141
1136
1128
1132
1129
1129
1123.5642423628
1120
1127
1133
1130
1135
1126
1130
1129
1136
1128
1129
1129
1133
1142.99999999999
1139.28116733513
1130
1128
1129
1128
1133
1130
1131
1139
1136
1134
1123
1120
1122
1121
1116.29546603615
1114
1118
1120
1121
1128
1118
1117
1124
1124
1129
1125
1117
1125
1126
1130.58517952131
1134
1132
1141
1146
1142
1138
1133
1128
1136
1138
1132
1142
1137
1143.95637474156
1151
1142
1138
1138
1139
1143
1141
1140
1144
1149
1165
1152
1146
1157
1161.66519945737
1161
1161
1159
1159.99999999999
1162
1159
1159
1151
1144
1151
1153
1146
1142
1139
1142.01211567092
1144
1137.00000000002
1128
1129
1131
1139
1133
1125
1125
1129
1134
1132
1128
1125
1128.81396451485
1133
1130
1124.00000000001
1125
1129
1130
1130
1126
1121
1126
1137
1141
1133
1133
1138.79006787432
1142
1139
1138
1135
1139
1144
1140
1138
1139
1128
1134
1138
1127
1125
1131.72145891829
1139
1142
1140
1125
1138.99999999998
1139
1136
1134
1134
1144
1152
1163
1164
1162.69244537565
1173
1197
1209
1228
1236
1248
1258.99999999998
1271
1263
1259
1261
1259
1252
1235
1219.70476903329
1208
1199
1193
1183
1176
1170
1177
1181.00000000001
1175
1176
1171
1182
1175
1145
1115.87528419434
1101
1102
1104
1145
1276
1484.99999999962
1682
1837
1957.99999999981
2050
2067
1956
1766
1564
1383.62591671749
1236
1125
1046
1004
985
993
1019.99999999995
1049
1075
1088.99999999998
1103
1122
1143
1141
1143.0423486162
1151
1160
1174
1179
1184
1189
1193
1204.99999999999
1202
1202
1204
1205
1224
1225
1219.91639612995
1220
1227
1230
1232
1225
1222
1227
1235
1247.99999999998
1255
1255
1268
1282
1293
1300.71660115118
1315
1342
1368
1392
1407
1427
1450
1487
1512
1532.99999999997
1544
1558
1584
1606.05244969718
1618
1621
1624
1622
1610
1583
1554
1533
1502
1468
1429
1384.00000000006
1358
1322
1290.31931556239
1263
1235
1213
1201
1189
1175
1158
1152
1149
1144
1140
1130
1129
1131
1126.79754927221
1124
1127
1123
1126
1117
1117
1117
1116
1116
1125
1124
1120
1116
1118.99999999999
1124.66552095962
1122
1109
1109
1110
1119
1120
1111
1110
1114
1115
1114
1106.00000000002
1096
1109
1111.96202660544
1107
1105
1100
1099
1112
1111
1108
1110
1113
1114
1113
1105
1096.00000000001
1093
1101.91206071685
1106.00000000001
1094
1090
1091
1094
1090
1098
1093
1094
1099
1101
1101
1093
1087.71736781012
1093
1105
1097
1089
1091
1095
1101
1092
1098
1088
1098
1102
1095
1087
1084.58218287953
1091.99999999998
1101
1082
1080
1083
1086
1091
1093
1086
1082
1086
1091
1098
1085
1081.9397612313
1091
1098.00000000001
1088
1090
1079
1081
1089
1085
1078
1070
1073
1075
1075
1073
1069.7904423295
1070
1073
1065.00000000001
1061
1055
1062
1067
1069
1062
1051
1050
1062
1054
1045
1043.39234029456
1046
1048
1048
1052.00000000001
1036
1031
1046
1040
1041
1045
1050
1062
1065
1076
1076.1686421508
1081
1105
1120
1130
1143.99999999998
1151
1160
1165
1161
1144
1134
1127
1117
1096.19518641932
1073
1059
1054
1043.00000000001
1037
1024
1022
1024
1029
1022
1016
1013
1003
988
964.243430454753
937
920
945
1033
1192.99999999965
1414
1622
1800.99999999973
1926
2007
1946
1778
1570
1399
1252.63354363083
1135
1051
981
940
899
888.999999999997
896
915
933
940
956
962
968
981
996.894407137068
999
985
998
1011
1011
1018
1008
1022
1030
1034
1034
1029
1028
1037
1040.51550270163
1038
1036
1042
1049
1059
1052
1055
1067.99999999997
1083
1089
1093
1100
1126
1145
1162.27725806185
1180
1196
1210
1233
1265
1287
1305
1328
1357.99999999995
1379
1396
1408
1431
1450.80207716164
1462
1462
1448
1439
1429
1412
1384
1353
1322
1296
1266.00000000005
1236
1191
1157
1136.56362290853
1119
1096
1073
1058
1051
1049
1037
1018
1014
1012
1018
1016.00000000001
1009
1005
1007.19485999277
1007
1000
1000
998
1003
1002
1006
1001
993
991.999999999992
998
996
991.000000000008
990
997.966950202686
1001
993
998
990
991
990
993
987
987
990
989.999999999999
990
981
971.999999999999
981.844381755621
983
962
971
961
967
969
970
966
961
956
959
960.999999999999
958
947
949.48423713889
959
961
952
949
952
958
962
957
954
952
958
956
954.000000000003
952.005107385324
954
962
964
957
948
947
963
964
965
961
963
968
968
965
956.736133786405
952
956
954
954
957
956
958
953
955
950
948
953
953
947
938.967310844235
935
939
945
947
941
938
943
949
950
928
929
934
942
940
930.204120545698
929
939.000000000004
928
935
930
934
947
946
956
954
956
968
990
1006
1019.6430284402
1024
1020
1036.99999999997
1045
1040
1022
1019
1018
1009
987
961
948
934
932
923.566203337436
911
903
899
896.999999999995
900
889
889
892
872
862
845
836
837
884.443588261252
995
1180
1427.99999999958
1635
1814
1940.99999999985
1961
1844
1644
1450
1297
1174
1082
1012
962.707941955852
927
896
871
869
864
855
851
850
858
862
867
868
868
873
881.428741769156
887
886
888
900
907.999999999993
905
891
897
910
914
921
921
922
934
939.557913305039
941
943
941
951
957
977.99999999997
985
990
1009
1027
1046
1051
1066
1094
1126.67303792184
1154
1173
1199
1221
1250
1275
1285.99999999997
1307
1320
1341
1360
1359
1351
1349
1340.30850216342
1324
1300
1263
1236
1210
1173
1138
1098.00000000006
1072
1048
1019
993
963
956
943.721194914464
927
915
905
905
907
900
901
888
881.999999999988
894
890
887
884
885.959670142771
891
895
896
891
886
900
905
906
895
897
908.999999999975
921
921
917
915.39223642389
921
931
924
915
911
915
918
920
920.00000000001
912
913
915.999999999997
913
900
895.45092644654
899
904
904
894
887
889
896
900
885
885.999999999999
886
900
888
889
879.679758431807
873
884
885
882
878
881
879
888
892
886
891.999999999987
896
897
897
898.491038224197
898
895
900
901
895
895
901
907
901
902
902
906.999999999986
916
920
909.311353991912
905
920
920
918
913
909
914
915
912
907
904
903
909.999999999991
908.893127724779
901
895
899
903
897
898
895
896
905
905
896
896
900
902
907.28082409392
912
913
920
931
935
955
956
984
1000
1013
1014
1015
1018
1016
1013.74735498893
1002.00000000004
981
983
973
956
940
928
919
913
913
904
894
894
901
905.749469054522
908
906.000000000017
890
875
865
857
848
888
1001
1205
1451
1671
1843
1966
1993.72750716634
1899
1696
1499.00000000032
1335
1210
1111
1049
991
951
920
898
898
902
913
918.589027724251
921.99999999999
930
938
941
954
954
967
967
985
997
998
1001
1011
1022.5082396343
1031
1036
1044.99999999998
1052
1059
1069
1072
1072
1078
1090
1099
1110
1113
1124
1138.1523160257
1154
1169
1175
1190.99999999997
1207
1228
1252
1268
1292
1321
1360
1391
1410
1436
1469.39739280137
1499
1519
1538
1539
1553.99999999996
1576
1584
1573
1560
1536
1533
1503
1460
1419
1388.48677959145
1365
1340
1303
1265
1240
1224.00000000002
1209
1188
1176
1162
1164
1161
1146
1143
1145.48061343738
1147
1145
1140
1135
1146
1145
1154.99999999999
1151
1145
1147
1152
1154
1155
1153
1164.32510285966
1172
1163
1164
1159
1160
1166
1173
1174
1173
1178
1173
1171
1170
1167.07039680672
1164
1163
1164
1164
1159
1154
1161.99999999999
1160
1164
1155.00000000002
1152
1155
1161
1155
1148.65108054315
1147
1148
1148
1162
1152
1147
1154
1151.00000000001
1149
1147
1147
1145
1152
1157
1153.30579238752
1149
1152
1157
1156
1148
1148
1157
1155
1163
1156
1155
1156
1168
1163
1159.04079503582
1159
1160
1166
1171
1169
1168
1165
1174
1175
1168.00000000002
1161
1163
1164
1164
1160.39559196191
1157
1160
1168
1162
1162
1157
1158
1165
1165
1160
1160
1159
1161
1165
1160.22772273034
1159
1169
1169
1174
1163
1162
1157
1163
1169
1164
1161
1159
1159
1161.64040284719
1162
1157
1154
1156
1162
1156
1156
1154
1149
1159
1161
1155
1157
1151.00000000001
1154.05783948172
1163
1169
1175
1185
1192
1200
1205
1220
1246
1265
1275
1287
1278
1282
1285.84774004035
1285
1279
1264
1257
1248
1230
1221
1205
1203
1195
1192
1186
1179.00000000001
1179
1186.46328346242
1188.00000000001
1179
1181
1162
1144
1135
1123
1113
1138
1234
1425
1637
1814
1948.99999999978
2061.44246597297
2109
2043
1872
1660
1465
1309
1188
1102
1043
1016
1020
1029
1049
1070
1090.93116380076
1111
1127
1135
1146
1164
1181
1190
1195
1201
1219
1224
1226
1231
1235.07923178555
1238
1241.99999999999
1250
1252
1247
1257
1258
1261
1256
1261
1265
1275
1284
1282
1286.95611080889
1297
1305
1312.99999999998
1324
1329
1345
1367
1379
1395
1416
1442
1477
1507
1531
1545.34255851824
1564
1595
1618
1645.99999999997
1651
1669
1677
1680
1681
1669
1647
1637
1596
1562
1527.66560425454
1493
1462
1426
1386
1367.00000000005
1328
1312
1294
1276
1255
1245
1236
1231
1223
1215.04339163575
1212
1214
1210
1204
1196
1194
1196
1202
1204
1195
1200
1199
1212
1202
1199.4263099953
1205
1209
1214
1215.00000000001
1209
1211
1209.99999999999
1220
1220
1211
1208
1208
1212
1214
1203.5504236179
1197
1206
1206
1204
1200.00000000002
1192
1208
1207
1209
1200
1201
1196
1195
1194.38464879241
1195
1199
1203
1207
1211
1204
1203.99999999999
1212
1218
1215
1215
1210
1212
1215
1214.26247128456
1213
1213
1209
1211
1220
1214
1210
1212.99999999999
1221
1218
1219
1218
1222
1223
1220.0280420256
1216
1213
1211
1214
1217
1211
1210
1213
1213
1216
1210
1205
1207
1211
1214.79577594349
1212
1202
1204
1209
1205
1193
1190
1182
1194
1202.00000000001
1193
1192
1189
1193
1195.77684703019
1191
1181
1182
1181
1187
1189
1178
1183
1180
1183
1180.00000000001
1176
1169
1172
1173.80800466723
1167
1154
1155
1161
1161
1158
1152
1151
1156
1163
1157
1162.00000000001
1149
1150.12659825477
1160
1161
1154
1156
1163
1168
1178
1187
1191
1197
1208
1219
1236
1248.99999999997
1268.63940271072
1288
1296
1293
1289
1292
1297
1293
1274
1262
1250
1245
1241.00000000002
1226
1213
1203.26935498951
1204
1212
1196
1194
1197
1191
1200
1193
1176
1152
1147
1141
1127.00000000001
1151
1260.46403002019
1442
1653
1822
1956
2053
2107
2028
1856
1636
1450
1297
1176
1091
1035.00000000007
1008.86845469589
1013
1040
1063
1081
1102
1127
1141
1152
1168
1168
1187
1199
1219
1207
1216.18775579582
1237
1243
1240
1239
1239
1245
1257
1260
1261
1256
1270
1271
1267
1263.6526241394
1265
1273.99999999998
1286
1293
1289
1294
1304
1321
1332
1332
1346
1368
1385
1409
1423.64344883129
1438
1464
1494.99999999993
1531
1542
1565
1589
1621
1640
1648
1659
1672
1685
1682
1666.71753326558
1649
1631
1598
1570.00000000005
1539
1508
1469
1439
1408
1374
1340
1306
1293
1280
1259.23119417994
1241
1233
1227
1226
1215.00000000002
1206
1197
1199
1198
1191
1189
1179
1186
1192
1185.98328251618
1178
1176
1173.99999999999
1185
1179
1172
1165
1166
1174
1172
1170
1169
1166
1166
1163.13437345448
1154
1143
1149
1157
1153
1145
1142
1146
1149
1147
1142
1129
1127
1131.91779598304
1135
1130
1122
1127
1131
1134.99999999999
1135
1122
1126
1128
1126
1129
1124
1130
1133.2281576522
1131
1127
1125
1125
1126
1123
1122
1121
1120
1131
1124
1131
1120
1120
1128.16427397563
1129
1119
1121
1113
1122
1124
1111
1109.00000000002
1097
1113
1113
1112
1104
1105
1110.51027954838
1110
1101
1099
1093
1104
1109
1099
1098
1091.00000000001
1094
1101
1092
1087
1081
1084.58197769683
1086
1077
1080
1079
1077
1082
1082
1074
1073
1084.99999999999
1084
1076
1078
1069
1068.04396618866
1071
1070
1071
1062
1069
1067
1078
1067
1068
1065
1070
1064
1063
1055.30648944608
1055
1069
1061
1058
1052
1056
1057
1062
1061
1062.99999999999
1073
1076
1087
1106
1120.54561164399
1136
1154
1156
1161
1156
1159
1157
1151
1136
1121
1108.00000000003
1085
1071
1061
1048.41470163293
1039
1039
1041
1030
1026
1023
1023
1024
1017
991
963
961.000000000016
941
940
983.150921196931
1104
1314
1536
1736
1885
1999
2002
1889
1681
1490
1324
1206
1103.00000000015
1035
979.514813798455
939
921
916
927
935
945
958
971
977
974
985
994
1008
1013
1009.23880630358
1009
1018
1021
1030
1032
1035
1036
1048
1041
1045
1042
1045
1053
1056.01545234721
1054.00000000001
1052
1060
1074
1087
1089
1089
1101
1116
1127
1144
1163
1176
1200
1223.70915657144
1243
1260.99999999996
1286
1311
1339
1353
1369
1390
1418
1438
1446
1462
1470
1478
1472.66671629706
1453
1425
1399.00000000004
1377
1350
1319
1281
1240
1209
1181
1146
1112
1087
1075
1065.94567512549
1054.00000000003
1040
1035
1029
1023
1006
1002
997
1000
999
993
992
987
992
985.09813167781
980
990.999999999983
996
1001
998
993
997
981
995
1005
999
994
988
997
999.308421222732
997
996
990.999999999995
999
995
998
997
990
991
993
987
979
976
973
970.213778613651
970
968
952
957.999999999981
964
959
954
947
955
960
954
946
951
960.67711758969
960
946
945
938
945
944.999999999993
952
946
943
951
956
956
957
955
958.703395164763
962
960
964
963
963
964
969.000000000005
961
964
964
965
962
961
960
956.710574554822
958
967
966
955
966
978
975
976
973
969
972
986
981
970
963.04774296982
965
973
966
957
951
957
960
961
959.000000000024
945
964
958
956
949
947.988032041976
951
953
958.999999999986
965.000000000004
965
973
983.000000000014
983
991
1002.00000000006
1025
1045
1059.00000000003
1063
1062.97124888259
1068.00000000004
1078
1070.99999999997
1062.99999999996
1048
1040.99999999997
1028.99999999996
1016
992.999999999921
975.999999999957
965
953.999999999992
959.000000000015
956.819999179844
949.999999999982
949
952
948.999999999995
948
937
928.999999999952
908
888
877.999999999977
874
886
958.000000000403
1112
1324.65325309775
1552.00000000078
1751
1903
2003.00000000015
1972
1813.99999999927
1595.99999999928
1424
1280.99999999953
1164.99999999966
1088
1027.99999999979
974.999999999856
945
912.72370590262
890.999999999973
896
907.00000000003
915
923
906.999999999979
917
924
928.999999999994
924
932
938.000000000004
939
950
952.014026042837
954
966
972.000000000023
980
980
971.999999999991
976
980.000000000029
991.000000000028
992
988.999999999996
990.000000000006
994
1007.00000000004
1011.57848991979
1010
1013
1028
1038
1049
1059
1068
1091
1109
1126
1144
1166
1187
1221
1242.86543708837
1261
1287
1310
1344
1357
1373
1388
1401
1418
1425.00000000002
1429
1414
1401
1385.70363492854
1362
1328
1292
1266
1238
1201
1174
1143
1109
1088
1068
1053
1032
1015
1006.53413068277
997
980
969
967
971
964
960
950
953
956.000000000013
962
965
951.999999999989
962
967.281405055397
969
973
964
964
971
985
983
977
984
989
993
997
991
1000
1001.58868662997
1000
1002
992
990
998
997
997
988
987.999999999977
995
992
991
983
987
989.425216715841
986
978
967
959
965
967
963
954
956
960
960
957
945
947
959.819567506062
963
948
945
942
954
966
963
955
950
965
966
965
963
961.425473664496
964
970
966.99999999998
963
965
965.000000000015
974
980
976.999999999989
974
969.999999999983
982.000000000036
985
983.000000000016
976.745705929188
974
981.999999999958
988.999999999984
976
971.000000000016
968.000000000019
980
983.999999999996
982.999999999981
976
977.999999999986
983
990
981.00000000003
978.75836689916
981
980
981
978
976
973
984
982
982
972
973
981
982
980
972.987229186443
969
974
977
980
978
968
982
995
998
1001
1004
1020
1033
1044
1055.55634511822
1065.00000000003
1074
1091
1087.99999999997
1082
1080
1084
1079
1070
1053.99999999995
1040
1019
1014.99999999998
1002
987.28003003499
979.999999999995
980
974.000000000006
977.000000000003
972
966.999999999992
975.000000000031
980
978.000000000033
958.999999999899
932
929.00000000001
919.999999999963
919.843468725819
965.999999999707
1096
1316
1548
1755
1905
2019
2039
1913
1707
1511
1357
1227
1137
1069.77758981546
1015
971
949
951
958
967
968
985
990
1003
1010
1010
1020
1037
1047.25268961594
1053
1059
1065
1077
1087
1095.00000000003
1102
1108
1121.00000000005
1129
1118
1127.00000000004
1135
1139
1148.31417895311
1155
1155.99999999997
1171.00000000005
1178
1182
1182.00000000001
1190
1194.99999999998
1206.00000000006
1225
1236.99999999998
1243.00000000004
1261
1287.99999999991
1311.2707323498
1331
1352.9999999999
1386
1421
1447.99999999991
1474
1494
1511
1534
1553
1572
1575
1596
1589
1586.22919435141
1581
1559
1539
1516
1481
1454
1407
1374
1343
1311
1290
1252
1225
1209.65523462794
1198
1185
1173
1164
1158
1154
1154
1145
1152
1148
1149.00000000002
1154
1149
1143.99999999999
1143.12444020397
1148
1156.00000000001
1154
1152
1156.06806777008
1160
1156.00000000003
1146.99999999999
1154
1161.00000000001
1152.99999999998
1152
1153
1156.00000000002
1165.30095290506
1169.00000000002
1158.99999999996
1155
1159
1156.00000000001
1161
1155.00000000002
1154
1153
1164
1166
1163
1159
1159
1164.54201081958
1163
1151
1156
1155
1159
1155
1162
1152
1159
1158
1161
1157
1156
1152
1157.77878347155
1162
1155
1155
1153
1161
1166
1158
1153
1153
1160
1163
1157.99999999997
1151
1152
1153.88261021675
1157
1160
1151.99999999998
1152
1159
1157.99999999999
1159
1161.00000000002
1152.99999999998
1155
1158.99999999997
1165.99999999998
1156
1171.99999999993
1183.65962269091
1189
1194.99999999999
1196.00000000002
1209
1232.99999999992
1250.00000000004
1258
1263.99999999998
1271
1278
1281.99999999999
1280
1267
1252.42179754893
1242
1237
1228
1209
1200
1192
1200
1195
1189
1179
1184
1196
1189
1190
1182.00047301132
1162
1142
1141
1123
1118
1165
1292
1504
1706
1870
1994
2082
2112
2003.9999999994
1803.79962034919
1594
1428.99999999944
1280
1177
1089.99999999977
1051
1040
1040.00000000005
1062
1079
1102.00000000006
1115
1142.99999999992
1152.00000000001
1156.09174576034
1167.99999999993
1187.00000000005
1194
1205.99999999997
1209
1214
1229.99999999995
1239.00000000002
1245
1247.99999999998
1256.00000000003
1263
1271.99999999997
1275
1272.46891019729
1274
1284
1287
1289
1295
1294
1306
1310
1316
1312
1318
1332
1346
1353
1356.21630441461
1365
1385
1406
1425
1444
1464
1503
1523
1545
1564
1586
1625
1645
1668.38056529708
1690
1700
1712
1722.00000000004
1731
1717
1695.99999999994
1683
1664
1634.99999999988
1596
1557
1539.99999999992
1508
1472.55401077086
1435.99999999986
1401
1384.00000000007
1359.99999999992
1341
1323.00000000007
1304.99999999995
1295
1287.00000000002
1282.99999999997
1269
1259.00000000002
1258
1258
1259.06363321521
1257
1250
1249.99999999998
1257
1259
1257
1256
1248
1263
1263
1268
1259
1258
1261
1263.47377594829
1265
1265
1265
1271
1263
1261
1260
1259
1254
1254
1257
1261
1251
1254
1255.88025231187
1255
1251
1237
1245
1247.00000000001
1251
1253
1250.99999999999
1252
1257
1255
1257
1249
1254.00000000003
1259.96419874721
1260
1254.99999999999
1255
1259.99999999998
1263
1263
1261.00000000004
1250.00000000001
1261
1255.99999999998
1270.00000000002
1261
1255
1258.10072991499
1262
1260.00000000002
1256
1259
1262.00000000001
1260
1267
1259
1254
1262
1259
1264
1258
1248
1252.55971229758
1260
1259
1263
1263
1263
1263
1263
1251
1248
1250
1247
1251
1256
1244
1240.27506614551
1247
1254
1248
1243
1244
1250
1252
1247
1239
1240.00000000003
1251
1248
1240.99999999997
1233
1229.12482616886
1234.00000000004
1245
1242
1233.99999999998
1234
1237.99999999999
1236.99999999998
1230
1221.00000000002
1219.00000000001
1223
1226.00000000001
1219.99999999997
1214
1217.25043315536
1222.00000000001
1221
1218.00000000004
1205.99999999999
1214
1215
1214
1210
1211.00000000001
1205
1211
1210
1211
1207
1198.90702655707
1201
1218
1221
1223
1230
1234
1242
1247
1255
1270
1292
1310
1324
1328.52987167626
1325
1321
1327
1321
1308
1291
1290
1278
1264
1249
1239
1229
1233
1222
1210.5871141282
1207
1212
1218.00000000001
1215
1209
1195.99999999994
1176
1159
1146.99999999993
1125
1131.99999999988
1205.00000000042
1366
1574.99999999926
1765.53682609098
1914
2021.99999999963
2106.00000000014
2077
1932.00000000067
1724.99999999927
1536
1369.00000000053
1240.99999999961
1144
1065.00000000024
1018
1017
1024
1040.17135827963
1065
1091
1108
1127
1137
1143
1153
1171
1178
1189
1185
1197
1204
1215
1214.57030253563
1214
1223
1221
1227
1231
1220
1224
1229
1223
1221
1222
1224
1234
1236
1235.42061573196
1239.00000000003
1249
1259
1269.00000000003
1280
1295
1303.00000000004
1321
1349
1369.00000000005
1384
1412.99999999989
1442.0000000001
1468.5795711556
1491.99999999992
1515.0000000001
1543
1551.99999999993
1584.00000000011
1606
1622.99999999995
1635.00000000004
1647
1653.99999999997
1661
1652
1633.00000000005
1621
1598.69280456578
1570.0000000001
1542
1507
1471
1435
1404
1376
1337
1309
1288
1271
1247
1225
1211
1204.00205393579
1199
1191
1182
1184
1187
1181
1175
1171
1165
1170
1176
1175
1174
1165
1163.15011941564
1166
1166
1164
1165
1164
1170
1161
1154
1162.00000000002
1163
1168
1162.99999999996
1154
1156
1159.37054400419
1159
1156
1155.99999999998
1147
1148.99999999998
1154
1151
1149
1148.99999999999
1147
1147.00000000001
1140.99999999999
1140
1134.00000000002
1134.85837115115
1142
1146.00000000002
1137
1140
1142
1143
1137
1128
1130
1133
1134
1134
1128
1125.73458437574
1125
1126
1138
1129
1128
1125
1125
1133
1123
1125
1125
1129
1128
1127
1128.10601533577
1128
1127
1133
1127
1119
1122
1131
1129.99999999999
1126
1124
1125.00000000002
1130
1128
1130
1126.58842562859
1120
1119.00000000002
1128
1123.00000000004
1113.99999999999
1115
1113.99999999999
1123.00000000003
1124
1115.00000000002
1113
1115
1119.99999999998
1122
1120.39659235265
1116.00000000002
1113.00000000001
1118
1108.00000000005
1100
1104
1102
1104
1104
1103
1091
1091
1089
1090
1084.60851891816
1084
1096
1098
1096
1086
1081
1083
1084
1081
1079
1080
1087
1095
1095
1090.5643275032
1094
1113
1132
1144
1165
1163
1179
1180
1187.00000000001
1183
1179
1174
1176
1157
1137.54862981469
1126
1120
1108.99999999995
1097
1087
1071.99999999995
1063
1065.99999999998
1066.99999999999
1062
1063.00000000002
1054.00000000001
1064
1048.63395478439
1018.99999999991
998
982.000000000018
990.000000000059
1029
1159.99999999938
1360.00000000078
1580
1767.99999999942
1912
2018
2032
1915
1721
1528.87245401927
1366
1241
1143
1062
1008
969
932
930
950
964
971
986
999
1010
1018.78845038585
1022
1022
1034
1040
1045
1054
1052
1056
1060
1064
1066
1062
1058
1068.00000000005
1078.56782039482
1080
1071.99999999998
1072
1078
1090.00000000002
1091
1097
1092.00000000003
1111
1117.99999999997
1130.00000000004
1137
1140
1142.00000000003
1156.34458447881
1174.99999999994
1191.00000000008
1215
1230.99999999992
1259.00000000008
1275
1299.99999999988
1332.00000000009
1350
1372.99999999992
1393
1414
1430.99999999993
1454
1474.61922657556
1490
1499
1495
1482
1483
1461
1440
1402
1376
1356
1320
1282
1246
1215.76226263877
1188
1160
1137
1115
1095
1087
1084
1070
1055
1044
1040
1036
1034
1033
1029.39380837895
1027
1028
1025
1024
1022
1020
1026
1019
1019
1012
1022
1027
1022.99999999998
1021
1022.87092384456
1026.00000000001
1029
1033
1031
1031
1027.99999999999
1036.00000000001
1031
1026.00000000002
1020
1026
1023
1026.99999999999
1017
1015.80097259104
1023
1028
1023
1012
1009
1016
1019
1021
1009
999
1001
1004
1000
1002
995.599515269409
993
1004
1003
997
992
994
998
1003
999
1005
1002
1002
1002
1002
998.80835074298
995
995
999
998
999.000000000006
1001
1006
1011.00000000002
1011
999
996.000000000013
1002
1000
987.67695055206
981
989.999999999968
995.000000000012
997
992.000000000021
991.000000000026
1000
991.000000000031
990.000000000015
992
985
993.000000000028
996
998.999999999988
1001.13671424839
998
990.000000000018
990
991
983.000000000032
977
980
989
994
992
990
985
985
988
987.419802612721
985
984
985
988
990
993
995
1007
1012
1020
1022
1046
1052
1082
1096.83624858007
1094
1092
1106
1105
1104
1100
1085.99999999996
1079
1070
1052.99999999992
1033
1022
1001.99999999996
1002
995.122456787371
983.999999999971
980
980
984.000000000013
985
979.000000000033
969.99999999998
965
948.000000000072
930.999999999962
921
903.000000000001
932.000000000188
1015
1183.88991879203
1406.00000000082
1628
1806.99999999944
1946.00000000044
2035
1991.00000000041
1824
1610
1428
1292
1179
1102
1040
993.123413319126
957
928
914
912
928
927
927
928
933
943
941
943
943
947
956.59621172757
962
959
964
965
968
977
987
983
988
993
999
999.999999999994
1000
1010
1012.43248941695
1010
1014
1030.00000000004
1036
1044
1064.00000000006
1071
1075.99999999997
1090.00000000006
1110
1130.99999999994
1143.00000000005
1160
1181.99999999991
1210.98655931221
1241
1264.99999999993
1284.00000000007
1306
1334.99999999988
1367.00000000009
1385
1399.99999999995
1415
1435
1453.99999999996
1461
1465
1449
1434.09780137284
1419
1395
1361
1324
1300
1264
1237
1196
1166
1141
1120
1100
1070
1047
1040.74618474821
1035
1020
1019
1013
1007
1004
1006
1013
1006
1006
1011
1012
1006.99999999997
995.232198772681
993
1007.00000000003
1005
1003
1001
1001
1003
1009.00000000004
1018
1011
1014.00000000003
1020
1017
1019
1015.80746711622
1011.00000000001
1014.00000000004
1023
1013.00000000002
1013
1010
1015.99999999998
1020.00000000001
1022
1010.00000000005
1002.00000000001
1007
999.000000000022
997
987.10784222257
981
989
986
979
978
973
979
974
971
972
962
963
967
966
963.00366140137
960
958
957
956
955
951
959
960
959
958
953
959
962
967
961.630814535271
954
954
957.000000000035
964
945
954.000000000015
949
958
951.999999999993
957
955
958
954
953.999999999996
954.671857188765
956
958.999999999991
962.000000000021
967
961.999999999994
969.000000000002
963
970.999999999961
975.999999999988
968
965.999999999998
968.000000000018
975
978.249772872842
975
971
980.999999999977
982
988
986
980
983
997
991
983
986
984
984
988.812924846681
990
983
982
986
989
987
987
987
999
1016
1025
1020
1031
1036
1046.71338183407
1066
1088
1101
1111
1123.00000000003
1125
1121
1119.00000000001
1123
1111
1106.99999999999
1098
1077
1064.99999999997
1059.09353526072
1050
1036.99999999998
1037
1030.00000000002
1029
1027
1022.00000000002
1019.00000000001
1024
1024
1017.99999999992
983
964.000000000007
969.000000000001
960.855078467381
965.999999999904
1026.00000000034
1171
1410.99999999911
1641
1815
1951
2054
2037
1893
1684
1502
1341
1222
1135.53731805345
1070
1017
976
962
967
978
983
995
1010
1020
1026
1032
1046
1056
1065.96889700196
1075
1077
1071
1089
1100
1103
1110
1110
1124.00000000003
1127
1137
1139.00000000001
1143
1146.66690700992
1149.00000000001
1154
1165
1161.00000000002
1173
1167.99999999999
1184.00000000005
1188
1193.99999999997
1204.00000000004
1217
1236.99999999994
1249.00000000003
1260
1287.23107002906
1314.00000000006
1327
1350.9999999999
1376.00000000008
1401
1440.9999999999
1460
1494
1515.99999999993
1537
1558
1581
1594
1601
1610.86225454954
1621
1623
1608
1591
1556
1538
1505
1467
1429
1383
1355
1329
1289
1263
1241.86257976274
1221
1204
1198
1182
1168
1172
1169
1168
1162
1148
1150.00000000004
1160
1155
1151.99999999998
1144.65368492117
1144
1157.00000000003
1160
1161
1146.99999999998
1152
1155
1157.00000000001
1157
1153
1157.00000000002
1160
1163.99999999999
1160.99999999998
1153.10471952673
1149.99999999999
1156.00000000002
1158
1160.00000000002
1151.99999999999
1157
1159.99999999999
1160.99999999998
1154
1158.99999999999
1157
1156
1160
1154.65358796852
1144
1138
1141
1142
1142
1130
1134
1139
1132
1137
1138
1137
1139
1145
1142.36695693443
1139
1142
1139
1142
1146
1144
1151
1138
1136
1139
1133
1136
1136
1135
1137.28883957791
1137.99999999999
1136
1144
1146.99999999999
1143
1139
1135.00000000001
1144
1147
1140.99999999999
1140
1138
1146.00000000005
1160
1156.91230195749
1151
1156
1153.99999999999
1160.00000000002
1161
1162.00000000001
1158
1161
1163.99999999998
1165.99999999997
1154
1156
1151
1160
1162.68311190015
1157
1152
1157
1160
1167
1162
1162
1166
1175
1178
1168
1167
1167
1172
1165.63532578612
1156
1154
1152
1152
1153
1145
1143
1142
1152
1147
1145
1137
1140
1146.55324966074
1149
1145
1144.00000000002
1151
1153
1166.00000000002
1165
1169
1174.00000000005
1197
1214
1229.00000000003
1232
1232
1238.24668003523
1244
1242.00000000002
1234.99999999996
1225
1229
1221.99999999996
1209
1190.00000000006
1177.99999999999
1177
1167.00000000004
1157.99999999996
1148
1150.99999999998
1153.37984243676
1155
1157.00000000001
1151
1151
1145
1133
1110
1092
1084
1086
1147
1277
1497
1694
1857.87685963103
1992
2087
2100
1981
1789
1575
1411
1275
1174
1096
1052
1031
1028
1044
1075.14681840295
1103
1115
1129
1144
1156
1170
1185.00000000003
1186
1190
1200.00000000003
1209
1220
1225
1227
1243.96386769538
1256
1249
1256.99999999996
1260.99999999998
1255
1265.99999999995
1276.00000000004
1284
1277.00000000002
1278.00000000003
1291
1301
1292.99999999998
1294.94729081254
1306.99999999995
1319.00000000003
1325
1330.99999999998
1339
1356
1376.99999999994
1391
1412
1425
1447
1476
1502
1529
1544.00423920706
1563
1600
1631
1651
1669
1685
1702
1718
1728
1730
1725
1719
1702
1680
1651.01079365332
1617
1580
1544
1526
1483
1445
1418
1390
1364.99999999993
1349
1334
1325.99999999995
1307
1298
1287.74574776962
1277
1272
1273
1272
1267
1266
1266
1263
1266
1263
1261.99999999999
1265
1262
1257.00000000002
1254.07512193371
1256
1261.99999999999
1264.00000000001
1270
1268.00000000003
1256.99999999998
1261
1272.99999999998
1270
1266
1258
1262
1268
1267
1259.603890774
1254
1254
1248
1246
1244
1236
1234
1234
1236
1226
1214
1214
1210
1213.45930595493
1214
1204
1208
1215
1214
1207
1209
1204
1210
1202
1207
1211
1205
1209.00000000002
1209.87031247663
1207
1206.00000000001
1209
1209
1213.00000000002
1215
1205
1207.00000000003
1214
1216.99999999998
1221
1215
1211.99999999999
1221.00000000004
1230.19004851334
1229.00000000003
1217.99999999998
1221
1221.99999999999
1227.00000000003
1230
1219.00000000002
1223.00000000001
1222
1226.99999999999
1227
1228
1241.99999999996
1247
1250.04965050148
1254
1258
1266
1288
1304
1314
1313
1313
1313
1314
1308
1301
1284
1271
1265.00153239547
1254
1231
1214
1206
1203
1196
1193
1184
1181
1189
1184
1177
1172
1169
1149.11558695757
1128
1120
1102.99999999993
1096
1152
1293.00000000066
1501
1697
1868.00000000051
1989
2081
2066.99999999969
1922
1724.31730091602
1524.99999999933
1358
1236.00000000037
1144.99999999971
1071
1027.00000000011
1005.99999999997
1006
1017.99999999993
1040.00000000007
1057
1087.9999999999
1106.00000000002
1108
1122.44874830471
1142
1152
1156
1165
1169
1181
1193
1201
1202
1205
1221
1222
1229
1229
1237.85167622868
1246
1245
1253
1248
1251
1259
1265
1273
1281
1281
1288
1305
1312
1323
1335.35234507605
1349
1367
1390
1408
1430.0000000001
1462
1496
1527.00000000008
1543
1571
1606.00000000012
1636
1664
1684.00000000005
1693.56729542783
1706.99999999992
1730.00000000005
1733
1726.00000000005
1706.99999999992
1686
1666.00000000011
1624.99999999985
1585
1542.00000000012
1513.99999999987
1469
1447.00000000009
1408.99999999983
1362.35315566227
1329.00000000007
1318
1302
1282.00000000006
1268
1255
1258
1245
1243
1234
1228
1235
1232
1231
1228.5026236178
1224
1223
1232
1227
1223
1222
1227
1233
1230
1226
1225
1229
1238
1240.21255287253
1236
1232
1240
1250
1237
1242
1240.99999999999
1240
1242
1244.99999999997
1229
1227
1232.00000000002
1235
1235.15670704565
1229.99999999997
1224
1233
1225.99999999998
1226
1215.00000000004
1212.00000000002
1221
1222
1223
1218
1211.00000000002
1211.00000000003
1222
1221.8139749481
1214.99999999998
1213
1216.99999999998
1220.00000000001
1222
1225.00000000001
1219
1219
1227
1229
1229
1227
1232
1224
1219.79157344879
1218
1215
1222
1227
1231
1236
1237
1237
1252
1258
1282
1293
1298
1317
1319.59422697901
1314
1316
1318
1317
1317
1305
1286
1276
1265
1257
1244.99999999994
1229
1224
1218.99999999998
1211.15931458414
1206
1204.99999999998
1198
1200
1208.00000000001
1203
1194
1165.99999999989
1138
1120.00000000007
1096.99999999993
1091
1134.99999999968
1271.56217922018
1464
1660.99999999932
1835.00000000053
1964
2063.99999999981
2052.99999999974
1925
1716.00000000073
1531
1366
1236.00000000039
1141
1068
1016
994.216813636729
995
1009
1034
1053
1070
1093
1101
1114
1120
1137
1143
1151
1151
1147
1154.50139325844
1164
1165
1167
1171
1180
1184
1182
1184
1181
1182
1189
1190
1193.00000000001
1194
1202.31050343433
1218.00000000006
1232
1228
1231.00000000003
1241
1253
1267.00000000006
1283
1293
1319.0000000001
1348
1377.9999999999
1401.00000000007
1424
1456.41415803736
1493.00000000013
1524
1543.99999999993
1567.00000000007
1587
1616.9999999999
1638.00000000006
1653
1662.99999999997
1671.00000000004
1679
1666.00000000008
1640
1620
1589.01696246593
1560
1541
1499
1459
1424
1388
1354
1322
1290
1265
1253
1233
1219
1204.95373901992
1194
1190
1185
1179
1168
1169
1164
1167
1165
1165
1155
1157
1153
1155
1153.78104460294
1147
1140
1145.00000000003
1151
1148
1143.00000000002
1156
1160
1160.99999999999
1155
1157
1157.00000000003
1169
1158
1147.60220578758
1143
1141
1144.00000000002
1145
1133.00000000003
1132
1133
1138.99999999999
1139
1139
1129.00000000002
1130.00000000002
1135
1131.00000000002
1126.563167477
1123
1120.99999999999
1126
1126
1124
1124
1121
1121
1123
1118
1122
1115
1111
1107
1099.5921454261
1097
1104
1105
1098
1096
1092
1089
1093
1092
1086
1084
1078
1084
1089
1085.65891671373
1076
1068
1075
1074.99999999999
1074
1069
1062
1068
1065
1062
1063
1061
1063.00000000002
1072.96154093471
1083
1088.00000000003
1097
1102.99999999997
1120.00000000008
1141
1143.00000000002
1140.00000000001
1149
1155.00000000001
1145.99999999998
1144
1134.00000000004
1127.99999999999
1125.44544699133
1115.00000000007
1091.99999999992
1076
1067.00000000002
1066
1066
1044
1033
1031
1036
1032
1026
1031
1027
1021.17048615258
1006
977
956
938
938
951
1023
1189
1417
1636
1814
1947
2017
1951
1780.78056885544
1582
1415
1275
1168
1086
1030
982
960
929.999999999954
938
945
953.000000000032
961
967
979.690616232553
991
993
995.000000000008
998
1007
1018.00000000001
1015
1014.99999999999
1020.00000000001
1024
1032.99999999999
1025.99999999996
1022
1036.99999999995
1044.19468730806
1043
1040.00000000002
1037.00000000001
1045
1047.99999999998
1058
1068
1066
1070
1080
1090
1095
1107
1123.94907040384
1140
1152
1164
1174
1189
1226
1248
1284
1303
1328
1354
1379
1396
1415
1441.99695246262
1464
1475
1494
1490
1486
1486
1478
1453
1419
1386
1356.9999999999
1329
1299
1255.99999999985
1221.37889536396
1194
1166.99999999991
1143
1119
1093.99999999995
1088
1074
1067.99999999998
1057
1047.00000000003
1039.99999999997
1031
1026.00000000001
1022.99999999999
1023.00320196553
1025.99999999998
1029
1026
1026.00000000001
1021.99999999999
1022
1026.99999999998
1032
1029
1030.99999999999
1031
1031
1029
1024
1015.75426940731
1010
1012
1016
1010
1003
1003
1014
1011
1007
1001
993
1007
998
999
991.618482056343
983
983
976
975
965
972
974
970
963
959
956
951
955
959.591556399502
958.999999999985
955
958
951.999999999999
955
942
943.999999999995
938
